frequency_cm1,total_intensity,isotropic_intensity,anisotropic_intensity
1.7980036902898915,0.0,0.0,0.0
1.8590112259602418e-05,0.0,0.0,0.0
1.7048334893733276e-05,0.0,0.0,0.0
2.141480238867791e-05,0.0,0.0,0.0
1.1454428689132743,0.0,0.0,0.0
1.3543745269119631,0.0,0.0,0.0
11.398393347289055,0.00481794048717649,1.7222168268793056e-05,0.004800718318907697
17.7293240632124,0.014842897847188737,0.00043535003123297767,0.01440754781595576
33.54728787950197,0.008970312940743203,3.418183986797252e-07,0.008969971122344524
38.9077897064578,0.0036227168464019787,1.9844443245857566e-06,0.003620732402077393
46.05904562585712,0.01171536404827617,4.728118444694005e-05,0.01166808286382923
49.14184684939252,0.004327487067691111,0.00017489361255312286,0.0041525934551379885
59.57150935739599,0.00520876202454347,0.00039234764552696427,0.004816414379016506
63.23376773089672,0.0031929083636209744,4.08748724546842e-06,0.003188820876375506
66.423871473396,0.003743705594168963,9.035555955727075e-06,0.0037346700382132362
73.76091579812162,0.0022932824831463543,0.0007868326736034827,0.0015064498095428715
89.91161423508926,0.0027516721987718242,0.0004517177054027812,0.002299954493369043
90.65425579029055,0.005816948467979515,0.0007087287551864386,0.005108219712793077
102.49375188981342,0.0012439839976850673,0.00014072295764482303,0.0011032610400402443
107.10941712459028,0.00198820692554023,3.887943550028275e-05,0.0019493274900399473
114.71596597968576,0.004767997121261759,0.0002877132109088546,0.004480283910352904
121.06013337033859,0.0011293868263342484,0.00031595338369797823,0.0008134334426362702
153.41274490103297,0.011387579627385867,1.6471348779939543e-05,0.011371108278605928
169.94596986404378,0.0029061321700741913,8.56191960578938e-05,0.0028205129740162976
258.65731458700634,0.012217268326531906,0.003944023545900521,0.008273244780631385
269.5331784500771,0.0032501811717279014,0.0022151949059196546,0.0010349862658082466
283.73604994634866,0.004221723104531406,0.002124082581497569,0.002097640523033837
291.10132559589584,0.0023730205939964714,3.3251769998847964e-05,0.0023397688239976235
294.2323392498868,0.003349097202761639,0.0005371799327608902,0.002811917270000749
298.03237083223763,0.005321265285315579,1.3044729326053764e-05,0.005308220555989525
306.87897515590856,0.002663578502959003,6.175395887555906e-05,0.0026018245440834436
310.65898195662555,0.005929975046927023,0.00015025244640439497,0.0057797226005226274
322.8186354330771,0.005913170353066331,0.00036224715299061405,0.005550923200075717
395.2716359231256,0.009079864667180927,0.005492314303491986,0.0035875503636889415
400.9497287600194,0.006329187948989771,5.293368586800015e-05,0.006276254263121771
407.05332637185063,0.009788174628236068,0.002993597548560348,0.00679457707967572
563.4794043741475,0.005361314975192731,0.0013981383328774296,0.003963176642315301
591.5121492230636,0.011661492391112555,0.007188145092757152,0.004473347298355402
593.3330100255482,0.0010802329992813113,0.0006337594109233489,0.00044647358835796236
596.7341227523605,0.004530257572539402,0.0009305934284171836,0.003599664144122219
604.2349568029291,0.012725846114036574,0.009040029007133707,0.0036858171069028677
607.2482468817215,0.007292697532988625,0.0013889391411643498,0.0059037583918242756
620.3985625171142,0.008715910777618513,2.1263593822925715e-06,0.00871378441823622
629.6636446003903,0.004413798029200945,0.0012845859665238176,0.003129212062677127
635.9581552128823,0.012829620403518581,0.0058227052999766495,0.007006915103541932
656.8319685360822,0.01664617588508685,0.001428563782377677,0.015217612102709173
746.8724873092008,0.004399643902924879,0.00021731430385254762,0.004182329599072331
766.9396146873394,0.0067525073434695285,0.004493870070380123,0.0022586372730894057
778.6513593953664,0.004243501358853188,0.0020679364361639177,0.00217556492268927
784.5910817650048,0.014396738336052987,0.00810141877794074,0.006295319558112247
800.0900449740012,0.0060839657046743295,0.00019668176476576307,0.005887283939908566
811.7151309977563,0.002573004995159317,0.0006985741004222671,0.0018744308947370501
818.1948949267265,0.01059331735981307,0.005816474710755823,0.004776842649057245
848.4519542314894,0.027493016129480366,0.015457713384457708,0.012035302745022656
855.4041748712277,0.09825964722482607,0.09210146886030199,0.00615817836452408
858.1675723044438,0.010468149823701029,0.0035491167823616973,0.006919033041339332
860.9549861952897,0.004648632261392862,7.601440963248256e-09,0.004648624659951898
875.1423316921193,0.0014298347499302336,0.0011592607472513548,0.0002705740026788788
885.4367062909705,0.010849216914418487,0.006211026018698783,0.0046381908957197045
886.7277483263326,0.009098711760808665,0.0076214873854431875,0.001477224375365478
891.1777127952341,0.0025450245053396554,0.0008087100526658545,0.0017363144526738009
899.7561269155822,0.004662118151899087,0.002729638716947498,0.0019324794349515893
921.7907450274536,0.0043513314113187,0.0034026867261974262,0.0009486446851212741
960.0518374358169,0.010230436620174017,0.0024882863410015574,0.007742150279172459
961.3084886408748,0.01282051568722407,0.00012541604819682323,0.012695099639027247
965.4242625663647,0.006491539540624614,0.00044964900447631026,0.006041890536148304
1037.153917334648,0.008846272322374718,0.000967930915350351,0.007878341407024366
1044.1744118909448,0.0063438579263863,0.00011953090539252284,0.006224327020993777
1045.2589237364443,0.009042067052992273,6.246050781849816e-05,0.008979606545173775
1199.584215526705,0.02918720915092917,0.0039054500069369844,0.025281759143992187
1227.856347073207,0.05739658299502161,0.007761880062157608,0.049634702932864
1236.3486909967103,0.050456376686556594,0.0047370269096391375,0.04571934977691745
1241.6688870352561,0.024923085894353866,0.000721637960449096,0.02420144793390477
1263.5323873425814,0.024594153905396914,0.01135772333589785,0.013236430569499065
1273.0771076433905,0.08326572601922169,0.044196375863053285,0.0390693501561684
1332.460117988127,0.04482863029079157,0.002071478973762502,0.04275715131702907
1333.864138525833,0.08329672146723499,0.04180024541971847,0.04149647604751652
1335.5999473116503,0.060995302724380654,0.009779076383004813,0.05121622634137584
1357.3073967809942,0.010429212859245095,0.004307708699180903,0.0061215041600641935
1377.3883931440344,0.0073319277090178984,0.002707649038304804,0.004624278670713094
1383.6516494374396,0.03077311834965085,0.0030221865284891284,0.02775093182116172
1452.8120322015372,0.02430555687172468,0.0010720601185018298,0.02323349675322285
1461.5389763845303,0.021622948022574515,0.0029630696269564052,0.01865987839561811
1468.9924843797614,0.012282194953847683,0.0017464584181910924,0.01053573653565659
1484.4013372261397,0.010714129769647715,0.00688541824731055,0.0038287115223371642
1491.9699319726258,0.0159548685820716,0.015243486864271205,0.000711381717800394
1500.7393223856873,0.01263213644806096,0.004619322940443121,0.008012813507617839
1717.0365165954547,0.2015436230909275,0.0065814639560555725,0.19496215913487192
1722.8065318661206,0.6895621045657707,0.35465507490196735,0.3349070296638034
1732.4550305079367,0.43334824452303083,0.2967818573905805,0.13656638713245034
1739.8712503084469,0.14528260569179463,0.10345920326398138,0.041823402427813246
1750.731349987099,0.04922736816010315,0.034648909915590435,0.014578458244512708
1761.610868214928,0.3925770294288531,0.3008234837471195,0.09175354568173358
1819.0832023857927,0.25436345561844753,0.1407807883071548,0.11358266731129277
1835.0815507089667,0.16275757230995508,0.022910507874744676,0.1398470644352104
1842.3703752769225,0.2538004862701719,0.13659574232236946,0.11720474394780243
3158.572360790196,0.40884280366215286,0.3531372581603084,0.05570554550184445
3213.0826377751205,0.040920122185726306,1.195982608849845e-05,0.04090816235963781
3213.2226246953437,0.2700078620021832,0.10227138703004038,0.1677364749721428
3216.252639961804,0.11446142807362646,0.0103538848103401,0.10410754326328636
3230.4979858534657,0.7604867039908504,0.6720102014912422,0.08847650249960813
3231.1428123875116,0.4000995604253897,0.30843866566862377,0.09166089475676593
3235.124268133898,0.4746160700548244,0.37281356560719503,0.10180250444762938
3308.7504194494454,0.343468109551581,0.13144299709097806,0.21202511246060296
3343.9648342777705,0.4429030403606504,0.27165145538994756,0.1712515849707029
3538.940066361697,0.7194800230661217,0.3431453953629204,0.3763346277032013
3657.2540726689904,0.37038233903696394,0.17816349689922265,0.19221884213774126
3788.711824980593,0.5931792330600371,0.3679842534147847,0.2251949796452524
