frequency_cm1,total_intensity,isotropic_intensity,anisotropic_intensity
3.909330278189271,0.0,0.0,0.0
1.2993608585886527e-05,0.0,0.0,0.0
4.097140887142628e-06,0.0,0.0,0.0
7.316853246966959e-06,0.0,0.0,0.0
1.1211268445055027,0.0,0.0,0.0
1.136208845612604,0.0,0.0,0.0
1.1897300295379805,0.0,0.0,0.0
10.517053232527536,0.00324514330502702,5.247030165127951e-07,0.0032446186020105073
15.025468175984118,0.010289261107979444,2.2579786522688607e-07,0.010289035310114217
25.09189647261962,0.020186009910524272,9.872587593839532e-05,0.020087284034585876
28.911578792000952,0.013668154267679186,6.3975087644465255e-06,0.013661756758914739
32.39642041205902,0.0016115795792983416,1.2886693192805828e-05,0.0015986928861055358
38.07337483395429,0.02257113598363017,5.746923275310382e-07,0.022570561291302638
46.633265881796405,0.00236561669183121,0.0005523001600594484,0.0018133165317717618
49.20037474778952,0.0319740875852659,9.665252383964954e-06,0.03196442233288194
59.939506583133486,0.023868989885718752,3.0695474934885795e-05,0.023838294410783865
65.44634839568594,0.002286427308028399,2.4163252255330713e-06,0.002284010982802866
77.99248959677738,0.0006359014668964564,5.939393008497709e-07,0.0006353075275956066
78.61392915588621,0.000788033618294143,1.5290565060489299e-09,0.000788032089237637
86.4723882222021,0.007525429491523616,0.0010603652908627078,0.006465064200660908
91.01598364213447,0.00013838042926266614,1.1117119382889236e-06,0.0001372687173243772
224.9157016648251,0.008414134182266182,8.718555881011847e-07,0.00841326232667808
226.9827235021993,0.01528724114646416,1.2028133916118836e-07,0.015287120865124999
229.71784713984152,0.0004426636723306992,8.821684306670648e-08,0.0004425754554876325
348.9404412782957,2.2527004955442055e-05,3.3311477918864326e-07,2.219389017625341e-05
349.7002421219429,2.543757633678137e-05,3.4779906645950333e-07,2.5089777270321866e-05
350.5273160003031,1.4185340524320093e-05,9.650947232168522e-08,1.4088831051998409e-05
419.7978822454656,0.00031238024563516674,0.00020280640002045123,0.00010957384561471547
422.30977467801716,8.993284902637311e-05,3.1051736986278236e-05,5.8881112040094874e-05
426.33546771483265,6.031763329384787e-05,3.5481620264137915e-06,5.676947126743408e-05
458.88286169333196,0.12264810072387641,0.09289976482678206,0.02974833589709435
460.5177789184593,0.07887845166441615,0.026020151883367662,0.05285829978104849
461.82945547111865,0.01283081855314126,0.0064119131717031,0.006418905381438159
463.06503494937533,0.007020136222846915,0.0002948309849224296,0.006725305237924486
466.3378790931681,0.02014174277576538,0.007054718268427728,0.013087024507337654
468.2445454206388,0.006765961903400683,0.004870553167316549,0.0018954087360841337
493.0098535182066,0.0005427934222352745,2.2439608643460772e-07,0.0005425690261488398
496.9784351513766,0.0005761613983509971,2.187963611306596e-05,0.0005542817622379311
501.661709450629,0.0014506062250501158,4.001397687322011e-06,0.0014466048273627937
604.1130643616752,0.002944183620889413,0.0011553571850734133,0.0017888264358159997
604.5202740697646,0.0006984880107284822,3.71686127978109e-05,0.0006613193979306712
608.5197174071767,0.01091239205030964,0.0008946091911548754,0.010017782859154764
763.9482880652221,0.006508932441475576,0.0051239326587202315,0.0013849997827553443
765.2995066985455,0.015141568709876554,0.00682373973447963,0.008317828975396924
767.4653352779919,0.0037419355840744464,0.0032119758390753207,0.0005299597449991257
773.5553457105905,0.003775609910281846,0.00015722178793653942,0.003618388122345307
774.7293800791025,0.09322883188559775,0.000337797736410698,0.09289103414918705
775.3427935854487,0.03195316414401497,0.019249123010201888,0.012704041133813088
778.7590281583582,0.01584290350608503,0.010541997522386947,0.005300905983698084
779.0114156857238,0.19356861834491929,0.16463984528388592,0.02892877306103335
779.8800840118015,0.002814078428335677,0.0006704954906314039,0.0021435829377042734
826.6434363809585,0.009491096463347908,7.1408962817143e-08,0.00949102505438509
827.5979147444622,0.012434097465854176,3.467836405452855e-08,0.012434062787490121
829.1171332446631,0.013062224584748315,2.497369395989096e-10,0.013062224335011375
914.0428349550505,4.646978096007861e-05,2.6268472174306142e-06,4.384293374264799e-05
916.4180279050962,0.0003538604301507039,5.322055523932525e-10,0.0003538598979451515
919.7551090594685,3.687312555702874e-05,2.3263462765603523e-06,3.4546779280468386e-05
944.1357512083582,0.0022666954649704757,2.804661925248332e-05,0.0022386488457179924
946.7886808755945,0.0023768670094716548,0.00018086947370482315,0.002195997535766832
948.0149455235095,0.0004247398951019412,5.919457190798714e-05,0.000365545323193954
1036.2084061998512,0.0006225859275945637,2.8442815194463627e-08,0.0006225574847793692
1036.3045545445796,0.007133880029686849,2.93557997548624e-08,0.007133850673887094
1039.1726918684706,0.0032881910085025105,2.052579487619334e-08,0.0032881704827076343
1049.2364254083132,0.005870534978634078,4.9246782883692236e-08,0.005870485731851194
1059.212103742279,0.00835311739615725,2.3079666359516605e-06,0.008350809429521298
1063.7369700016873,0.004186882518354483,7.1794938276484564e-06,0.0041797030245268344
1091.0949104963245,0.002430263799554371,0.0006815820994080301,0.0017486817001463408
1095.1134717732277,0.003670600349576484,0.0004352244503238659,0.003235375899252618
1095.8563373227307,0.011789303988739995,0.0020734403166508004,0.009715863672089195
1172.2743827339102,0.22164485496884795,0.12271808636686951,0.09892676860197845
1177.7110899042314,0.07019596008916047,0.023185602387151887,0.047010357702008586
1183.9349356110736,0.4451457837006363,0.1650726088712227,0.28007317482941363
1232.9891850421218,0.0055707142527392315,0.0008172164580816919,0.004753497794657539
1235.3405397859801,0.015048487608459978,8.660691975475999e-06,0.015039826916484502
1237.495046989182,0.01592021951145516,0.0021582880866651594,0.01376193142479
1320.171900137239,0.001148218487068778,0.00017026817638870307,0.000977950310680075
1322.1954049729436,0.0019217096404368305,0.00046732793119148933,0.001454381709245341
1327.3111258732354,0.0008609732115193819,4.6226836425854096e-05,0.0008147463750935278
1386.7156445974967,0.002796418644715795,0.0015707135046764483,0.0012257051400393465
1388.7263206466705,0.007375598952066763,0.002071747962902815,0.005303850989163948
1391.4367615804747,0.05078756353407125,0.001270324142613238,0.049517239391458016
1412.1243271100823,0.09296452355860234,0.003093788683044891,0.08987073487555745
1413.9273635352092,0.0014058744852565547,0.0004511037166858241,0.0009547707685707305
1420.681246436532,0.24444394391085078,0.031266491807095544,0.21317745210375524
1691.7810649074383,0.018798322334079826,0.0048344163168208805,0.013963906017258944
1692.6166768448627,0.0012626253777135077,0.0002926107591435993,0.0009700146185699083
1694.8715280869446,0.0025745210760613362,0.0014566240431114223,0.001117897032949914
1718.0944744977178,0.036531424239130694,0.034642557159865035,0.0018888670792656598
1719.2103045284587,0.0349735501835894,0.031939060153457544,0.003034490030131854
1720.3411170758804,0.05962485133501073,0.058212282892738144,0.0014125684422725826
1770.7079542094407,1.6566022273386323,0.9945491952887724,0.6620530320498599
1781.4503828723614,0.461033942831779,0.3518786038094183,0.10915533902236071
1787.6033375124302,0.4857563993857207,0.09295382915332033,0.39280257023240034
1802.1308612408957,1.4518882600414866,0.49255973755379384,0.9593285224876927
1803.4099286039877,2.5291665274667663,1.517566435037589,1.0116000924291773
1806.2179368374805,0.7800762527776407,0.3376629457341447,0.442413307043496
3188.1933408293394,1.2307058038636942,0.46126217362510324,0.7694436302385911
3198.361774429861,0.2524419759947335,0.07911591894070247,0.17332605705403104
3209.2711336503967,0.22707027220372566,0.0006423461557078892,0.22642792604801779
3209.7904799913217,0.23112819910024193,0.0023976162528736027,0.22873058284736833
3210.6950514943874,0.5260062840616017,0.0010219894319381797,0.5249842946296635
3210.837218959951,0.07879738409914544,0.014751738025379088,0.06404564607376635
3224.2238877196946,0.48955153632533954,0.3457147622093675,0.14383677411597204
3226.1214235181824,0.8555537400662243,0.5099818862710025,0.3455718537952219
3228.1378574233095,1.2121532738825909,0.9705461320302932,0.24160714185229776
3228.600179384697,0.1729243397860878,0.009109859930981398,0.1638144798551064
3229.682194199391,1.0153501005751733,0.7283189567208438,0.2870311438543295
3229.772043669979,1.469035253822259,1.235858085460002,0.2331771683622569
