frequency_cm1,total_intensity,isotropic_intensity,anisotropic_intensity
0.7429024885381816,0.0,0.0,0.0
7.713772937033167e-06,0.0,0.0,0.0
1.424062657238278e-05,0.0,0.0,0.0
1.628682411590824e-05,0.0,0.0,0.0
1.3172562173005855,0.0,0.0,0.0
1.671511385587967,0.0,0.0,0.0
13.39951587810284,0.004186083045834602,0.00013684097406198534,0.004049242071772616
21.809829302224543,0.004263076795136095,1.2271200416717547e-05,0.004250805594719378
23.274678686103872,0.004634527425198833,4.956632992693913e-05,0.004584961095271894
34.73588833096098,0.008383425266310883,0.00019017627454936544,0.008193248991761517
43.61578985789338,0.007795639754536306,0.000432544727446997,0.007363095027089309
46.77404273509047,0.00551551403379886,0.0005076911208926982,0.0050078229129061624
55.735945395382835,0.001672151163308381,0.00013187950145856708,0.0015402716618498138
57.92291122595919,0.0008329374190103364,2.7702573619879015e-06,0.0008301671616483485
70.46210561590428,0.001968912838626347,0.00014006315638285215,0.0018288496822434946
79.27566561757753,0.0032515560393494686,0.0004027292078699024,0.0028488268314795662
87.5467300191291,0.001547801865422852,1.19225726964606e-05,0.0015358792927263915
96.47075956225719,0.0030026913214761426,0.000545702765952666,0.002456988555523477
105.51954620379718,0.009063181070694535,0.0004197071410119728,0.008643473929682562
110.51685509401467,0.007201176624042972,4.507693873933431e-05,0.007156099685303638
118.31305330092444,0.00174697037417699,8.100333523958639e-05,0.0016659670389374036
121.71781761345105,0.001989886008749376,4.410344631692517e-06,0.0019854756641176836
130.29683953928185,0.002535346594810948,4.8976602831505295e-05,0.0024863699919794426
153.53465466871435,0.008873444595254592,2.0253048266973887e-05,0.008853191546987618
264.81354652838843,0.009216389174206642,0.0076309562921885055,0.0015854328820181372
268.7189291288308,0.0064649007360032176,0.0007942484205977247,0.0056706523154054925
286.0651630377174,0.002724750126834422,2.1457119525622725e-05,0.0027032930073087992
288.526340078968,0.005683514082243817,0.0005123817643050345,0.005171132317938783
292.0928671845383,0.0012791419504464424,0.00021259602686256814,0.0010665459235838742
296.4692691574372,0.002294260741421454,1.2215821547264535e-05,0.0022820449198741894
300.53320867433825,0.0052288498557813284,7.690793516736533e-05,0.005151941920613963
306.3416460118023,0.005574721151729583,0.0008578940610188655,0.004716827090710717
312.9965865382768,0.005953415915794702,8.465213327950138e-08,0.005953331263661423
397.4813067972933,0.0071673575437690065,0.0029033089404541515,0.004264048603314855
399.52988436012976,0.009243115812371066,0.004993292820087666,0.004249822992283401
418.83918594891895,0.011009960398724412,0.007261454904614069,0.0037485054941103434
552.7632041353068,0.00451419882455311,0.0003033877141744872,0.004210811110378623
581.416831391882,0.0039891001391749205,0.0002996686157930851,0.0036894315233818352
599.7183917385904,0.007055768419298643,0.0034261599069806397,0.003629608512318003
601.3501294927011,0.00502190344743143,0.000663218537613927,0.004358684909817502
607.1993813102669,0.008243206068917246,0.001549428127957921,0.006693777940959325
612.7808790077373,0.007664380447384886,8.963285485801762e-05,0.0075747475925268684
619.5632368146271,0.012090248912001372,0.001320891248548603,0.010769357663452769
622.619477452292,0.012820053063222986,0.0027979545659056974,0.010022098497317288
638.663219340108,0.011301753238558544,0.00019396610474344613,0.011107787133815097
652.8435597260413,0.010149124017526235,0.0016466977860891342,0.0085024262314371
671.820734382335,0.009448960199517666,0.0004288736109492214,0.009020086588568444
781.2764562183642,0.01831019310180172,0.013890444747082993,0.004419748354718727
783.0815155382343,0.0032235923152464643,0.00033675495228569164,0.0028868373629607727
787.4251212543357,0.000764026543710853,3.701746621043463e-05,0.0007270090775004184
814.1272539258646,0.0012067209686088295,0.0007254054364762915,0.00048131553213253797
815.374071279176,0.0020829598089521367,0.0004775853880371495,0.0016053744209149872
817.6586568553196,0.005576148884579335,0.0015025788404114569,0.004073570044167878
858.7482547462536,0.047500423588724965,0.04310029625705628,0.004400127331668682
865.0547048466618,0.058956629741274164,0.050163420190363225,0.00879320955091094
872.1875786690405,0.053861513853233775,0.049905431489234243,0.003956082363999531
883.3755837717846,0.0024938493702182573,0.002300001073119748,0.00019384829709850936
885.0652265304296,0.002043581029853211,0.0007401884040010065,0.0013033926258522045
889.4699715202654,0.0006283858126709022,0.0001352123219202279,0.0004931734907506743
900.8806151851412,0.00192577465736753,0.001069278245397651,0.0008564964119698789
913.9274146554003,0.002546649688602649,0.0006381395373370968,0.0019085101512655521
960.3621251163125,0.009599184550281307,0.0010030855618797282,0.00859609898840158
962.5654943343847,0.007051759273301129,0.0006128771311811252,0.006438882142120003
968.2724020685989,0.006859513062563057,0.0013575410567036377,0.00550197200585942
983.6750472799957,0.005458484755912647,0.00014573015445462528,0.005312754601458022
1005.7803520506361,0.002914048740493739,0.00019636253697852515,0.0027176862035152138
1038.8294195773242,0.01147307232463448,0.003451658070395572,0.008021414254238907
1046.70534007317,0.008437712100744503,0.0027783647605947133,0.005659347340149791
1060.9118019092916,0.012698375638749967,0.0004909990961486787,0.01220737654260129
1207.6459881948122,0.038034139583940266,0.018805103925165278,0.019229035658774988
1209.436114797748,0.01912005239675321,0.0031918012349632725,0.015928251161789937
1229.1184079344605,0.055685708615623844,2.0131048523993914e-06,0.055683695510771444
1239.7291609541883,0.042302809715119336,0.004757421789955304,0.03754538792516403
1269.6647430491505,0.025105663253575924,0.0020068632715934008,0.023098799981982523
1324.867768948385,0.017931628771614503,0.001300345466195737,0.016631283305418767
1347.109876058169,0.017469228369625184,0.0016585515367156197,0.015810676832909563
1347.235955002697,0.030708520972553166,0.0053908934046029465,0.02531762756795022
1351.3862314153412,0.0348789052380808,0.014129625248454153,0.020749279989626647
1355.6011480214136,0.1142350925001641,0.06601328820717166,0.04822180429299244
1375.8856653548996,0.06245703389306083,0.03248153173125226,0.029975502161808568
1417.1955252362102,0.047260522544122316,0.003592677126397103,0.04366784541772521
1462.1932623933353,0.02332564677951932,0.0007150893973291281,0.022610557382190193
1467.8719208091477,0.033308438340365315,0.006529998125245639,0.026778440215119676
1490.282028526914,0.024016131205784115,0.01605630949331383,0.007959821712470288
1503.0837500215127,0.012074043382324044,0.0026247523288034035,0.00944929105352064
1515.2349354036944,0.0038715296953197365,0.001856256054786811,0.0020152736405329255
1533.9590246381156,0.05530204722122821,0.04974924171409553,0.0055528055071326805
1726.2465155095874,0.054119838831822635,0.01214512411128779,0.04197471472053484
1736.950856701755,0.4450705591512429,0.34894218921818565,0.09612836993305722
1738.8912935132928,0.23030864495425324,0.045379062106239765,0.18492958284801347
1743.9557786282978,0.5148487565948731,0.4337357925469087,0.08111296404796432
1762.7663818016003,0.7391838689395033,0.44866353876010495,0.2905203301793983
1772.7549145026107,0.4587140631286963,0.2122270258701326,0.2464870372585637
1798.7538022378506,0.2060787112428779,0.08779181140434994,0.11828689983852796
1809.057592601282,0.012203730282947151,0.0012772783704757635,0.010926451912471389
1816.5507730808708,0.20511714095719227,0.11975935586045611,0.08535778509673617
3113.250111352217,1.0986210979452602,0.9199675926691404,0.17865350527611978
3178.196043100231,0.25100362796684766,0.10085591349564668,0.15014771447120098
3205.7075788597263,1.484984135568269,1.117101264166406,0.3678828714018629
3215.417045269279,0.1554816122190125,0.0023987665186476327,0.15308284570036487
3217.687764319237,0.12499362511167082,0.0028504751012338007,0.12214315001043702
3230.0823854288715,0.030156905499776905,0.0018172370129046665,0.02833966848687224
3234.7744864608817,0.5678974565316829,0.44438568651652577,0.12351177001515712
3237.1047514673814,0.6255406693883951,0.5311709053205629,0.09436976406783229
3244.226380626964,0.4345491818702999,0.27892520285101086,0.155623979019289
3295.4294330368093,0.28663557658654015,0.1614735186830802,0.12516205790345997
3790.884324242838,0.6456105384096801,0.4101661526671449,0.23544438574253518
3794.445301630292,0.5861292061103027,0.34658964189993724,0.23953956421036543
