frequency_cm1,total_intensity,isotropic_intensity,anisotropic_intensity
1.1369983011965776,0.0,0.0,0.0
0.5215977843469768,0.0,0.0,0.0
2.2272279098745698e-05,0.0,0.0,0.0
7.2690092730461415e-06,0.0,0.0,0.0
1.745182265075132e-05,0.0,0.0,0.0
1.0532590140808216,0.0,0.0,0.0
14.974166795195336,0.006783938790744939,8.418240416054368e-05,0.006699756386584395
24.178657516632306,0.007921151597069666,4.8458017751588356e-05,0.007872693579318078
32.79369573565702,0.014918167220627,5.290908567030657e-06,0.01491287631205997
33.91164267679652,0.008890004996184232,0.0011888232708088227,0.007701181725375409
54.12840807123228,0.0019645158302736983,0.00013633607169761397,0.0018281797585760842
58.026648649194264,0.0016919086866881933,5.595209234056914e-08,0.0016918527345958527
63.476570290701865,0.0058568483315904465,1.6114021279349703e-05,0.0058407343103110965
81.93042344768222,0.0018895888304528484,3.0019731880392506e-06,0.001886586857264809
93.4532343311832,0.006002585975512013,5.377117008758698e-05,0.005948814805424426
99.02108051434222,0.004459734672878027,6.306697537823259e-05,0.004396667697499794
106.15666855320151,0.03292186363076432,0.00012771900825633945,0.03279414462250798
149.2715091833546,0.0009310272439306185,3.6439986062347885e-05,0.0008945872578682706
167.85641328871023,0.001026357336226459,0.00017851801264134174,0.0008478393235851173
170.11070450560675,0.0001923128400730614,5.4173314678841035e-08,0.00019225866675838256
180.5325509907519,0.0010783013235734417,5.106655054920848e-05,0.0010272347730242333
183.39905666498143,0.004222129665399855,5.562732840262992e-05,0.004166502336997225
194.50556515270037,0.004287883510833248,0.0007685141379435912,0.003519369372889657
205.87610723452863,0.0053443758290019246,0.0009497095408432237,0.004394666288158701
393.66456579836216,0.0032957924652058405,0.00035629830770667043,0.00293949415749917
400.8326845135643,0.00383046046209346,0.00033973158263611954,0.00349072887945734
402.22610926849785,0.009341801632526231,0.00016087255958233452,0.009180929072943897
412.1916264316711,0.0032664280663745296,1.0866998986236985e-05,0.0032555610673882926
412.81669632005617,0.004925963882556419,7.301297710807308e-05,0.004852950905448346
418.34202350928194,0.0007307537220641773,2.1694395791194357e-05,0.000709059326272983
523.4039567954342,0.026351032603645647,0.000862467385779287,0.02548856521786636
523.999561077087,0.004544920847483844,0.003033783397228979,0.0015111374502548651
530.7316517594372,0.001638003603075555,1.1047358925179492e-06,0.001636898867183037
549.2150811386783,0.01728107420971592,0.009367517688948104,0.007913556520767816
556.9317773546504,0.08099562513431907,0.045740312296624154,0.035255312837694924
560.2502527840625,0.007166062658823375,0.0025641279215776348,0.00460193473724574
561.7263566426919,0.011316136848836832,0.007040955302352395,0.004275181546484437
565.5763487846652,0.005197155402969912,0.002332202225434551,0.002864953177535361
578.3362783982435,0.03180317704174718,0.015210373581113535,0.01659280346063364
585.9267010461266,0.0009259566579495695,6.568505809986504e-06,0.000919388152139583
672.147809502585,0.003182222708185811,0.0006179960691567567,0.0025642266390290542
679.2763230736432,0.002651668160880402,0.00014687047554215216,0.00250479768533825
697.9520277355014,0.006434619709609677,0.0009598537026521776,0.0054747660069574995
729.4455366807834,0.0012601952184028845,0.00030533236844588406,0.0009548628499570004
732.4291794878754,0.0010608836081073836,0.00023224210749923124,0.0008286415006081523
742.4360834893203,0.002241868514234488,6.604929369312346e-06,0.0022352635848651757
774.9075638027571,0.002250254559174008,0.0004844966232951855,0.0017657579358788225
781.4328590228921,0.05582535266601367,0.05448128000747685,0.0013440726585368173
784.5807561001529,0.001983863370506102,0.0006180149452741166,0.0013658484252319853
788.1026037497999,0.04295376214970578,0.040135007010502474,0.0028187551392033078
790.5248185119106,0.0740077729750317,0.06902491804173266,0.004982854933299034
799.0211321418453,0.06175171218662428,0.05584363682364587,0.00590807536297841
828.0253074758406,0.0018632067135679034,8.306538165847054e-05,0.001780141331909433
831.7677491259134,0.0013674021203910701,0.00019034670260207844,0.0011770554177889918
835.5480906110122,0.0022481238907078945,0.000352452118197923,0.0018956717725099716
866.170693723355,0.0009668372049753112,0.00034373532990422494,0.0006231018750710862
907.4177559004492,0.015020872696495626,0.008543002593224923,0.006477870103270704
986.2783911355972,0.002290650649434486,0.00033075178774494735,0.001959898861689539
988.1297447818631,0.01134452270573533,0.002497050325260244,0.008847472380475086
990.6015826261336,0.001294964118516422,0.00045698562829135127,0.0008379784902250706
995.8764648851194,0.0053947724284016145,0.0009893472494472328,0.004405425178954382
996.5244793848219,0.0025033847336263107,6.65801960381277e-05,0.002436804537588183
1002.7298267009483,0.007208702149967123,0.00017301507001535468,0.007035687079951768
1006.8099596328478,0.012514988532457492,0.006415942933019653,0.0060990455994378405
1012.4870780753132,0.0036390522937018405,0.0021719609794465427,0.0014670913142552978
1021.2387912774002,0.03857605398345718,0.034387224589054154,0.004188829394403032
1103.203820839991,0.012146259396771716,0.0070836929321824865,0.005062566464589229
1115.0815652225212,0.004749453701690256,0.0026640645900557233,0.0020853891116345328
1116.1988739842184,0.0459541938551313,0.02285849005114376,0.023095703803987545
1220.8955227065671,0.009647507330377484,0.006766519829226546,0.0028809875011509374
1240.3476283268044,0.1354760966388474,0.06515922462236914,0.07031687201647825
1242.3369876662666,0.06825732731321527,0.010414206769931773,0.057843120543283486
1245.2649496685754,0.1125984991710042,0.09016546131605475,0.02243303785494945
1260.2832246104656,0.006709843608990083,0.00013227352480816464,0.006577570084181919
1264.5209015116216,0.07961266321847121,0.018836838189867464,0.06077582502860374
1401.3322383984334,0.05599679904139175,0.03770080768811312,0.018295991353278637
1415.1836881881093,0.13260008616876937,0.06321242953829191,0.06938765663047745
1416.5519741909027,0.006539552712507448,0.00033102401782763744,0.006208528694679811
1425.0731080027315,0.007545274271380592,0.006863237961072869,0.0006820363103077228
1429.5888998580804,0.05245399672418423,0.043351020909978555,0.009102975814205678
1435.0939324221492,0.03894377763848864,0.023446336704369818,0.015497440934118823
1437.7548038762889,0.02440878748727363,0.020462040745645754,0.003946746741627874
1471.728479954032,0.0019447498852821533,7.76389236668827e-06,0.0019369859929154651
1477.9199131065716,0.015150421730930556,0.013637788697709551,0.0015126330332210056
1519.2689228151123,0.04479073568303079,0.0048028958702304985,0.03998783981280029
1564.7988739610394,0.0650669682253899,0.033318313030298335,0.031748655195091575
1589.3157446593448,0.2479872651103091,0.1511082276523593,0.09687903745794982
1705.3636939340236,0.2112897096360709,0.19717342947985847,0.014116280156212432
1709.4049286207037,0.1256614193500571,0.11964124315515912,0.00602017619489798
1709.6233624556614,0.01087375304934408,0.002196413084188008,0.008677339965156072
1758.2012181260543,0.042521496719370215,0.029935261187492738,0.012586235531877479
1773.572935442349,0.031088698002460436,0.01662405198544448,0.014464646017015956
1791.824433997026,0.11294234135020381,0.07767423687343827,0.03526810447676553
1801.0895853597706,0.6848051357989677,0.34091190676187305,0.3438932290370946
1813.8850780000716,0.037928075511611585,0.013664763804115874,0.02426331170749571
1823.1156766920624,0.17362451347785243,0.13519873744572197,0.03842577603213046
3226.472831227425,0.9873427563867412,0.5405919887283863,0.44675076765835486
3238.734657192323,0.2590225504217627,0.04489805827930352,0.21412449214245916
3244.2385879771896,0.2429957314973398,0.058920209268494866,0.18407552222884493
3259.4070570026797,0.1823039922720954,0.00998293409867363,0.17232105817342178
3271.353390930391,0.6262890355130104,0.43330821429701405,0.19298082121599636
3276.581252312807,0.3067143359095555,0.21369215054912435,0.09302218536043112
3278.615223782779,0.6187509258109061,0.459893897019756,0.15885702879115
3318.7830117155536,0.3199437286036836,0.16284139349856708,0.1571023351051165
3635.040200476644,0.20725624669738063,0.16029736945569945,0.04695887724168119
3637.137306355621,0.05627110704051415,0.02085839924296898,0.03541270779754516
3640.7511557555713,0.20833645665857164,0.14914931172612259,0.059187144932449046
3685.243202967395,0.3262059114472968,0.2018394926215831,0.1243664188257137
