frequency_cm1,total_intensity,isotropic_intensity,anisotropic_intensity
1.3021258377919025,0.0,0.0,0.0
1.2067478570601928,0.0,0.0,0.0
2.2715805775627793e-05,0.0,0.0,0.0
1.3110908609324218e-05,0.0,0.0,0.0
2.4613020497139118e-05,0.0,0.0,0.0
5.69710394639654,0.006853368291633151,6.416945774193413e-13,0.006853368290991457
12.268323129642603,1.929771521728499e-05,1.2110167816795925e-08,1.9285605049468192e-05
19.520985657694474,0.0001705706845264931,4.094640805697178e-07,0.00017016122044592337
24.926297706153242,0.00041608684337285655,2.523138421977058e-11,0.00041608681814147235
33.16750516898731,0.0015918698103953035,7.0543472242315774e-09,0.0015918627560480793
48.76366769338143,0.00029747086394700767,2.515030604300975e-08,0.00029744571364096465
53.974176637050256,0.00010924023617185859,3.646137537481417e-06,0.00010559409863437717
61.44632817964643,0.00012129928812512401,9.427197529081009e-08,0.0001212050161498332
80.46107000110013,0.00017233102430444278,1.1676085826780035e-10,0.0001723309075435845
94.8365636603765,0.0005288586769613567,1.1827093148611147e-06,0.0005276759676464955
102.23394445005975,0.0008634077966440295,0.000368459366980195,0.0004949484296638344
115.33284975447897,4.628640351015877e-05,1.4406418475467347e-06,4.484576166261203e-05
128.3276907934363,9.823041220584255e-05,4.964832155258711e-08,9.818076388428997e-05
136.79936064036906,0.016890273651453007,0.010752335912427911,0.006137937739025094
147.58202592464858,1.6352647333288608e-05,9.513450433739109e-07,1.54013022899147e-05
156.6262148905009,0.0001398402731809674,3.013292950141262e-06,0.00013682698023082614
164.26625565510003,0.001109083932990283,0.0003949353841097478,0.0007141485488805352
171.2591379978798,5.516350922021598e-06,7.81483079780855e-08,5.438202614043513e-06
175.67211888868275,1.474879813082923e-05,1.0277035504590036e-10,1.4748695360474184e-05
233.2361838792332,0.0003583590697689073,6.175793018253614e-05,0.0002966011395863711
246.02771869937655,2.0765672970875947e-05,5.423822972355637e-09,2.0760249147903593e-05
267.24516544928264,0.0004964681479727332,0.0001595774736107637,0.00033689067436196943
313.2921194323043,0.00024746521878774144,2.021484477562833e-05,0.00022725037401211313
371.11020892473056,0.0020960648150683374,0.0016712280908405097,0.0004248367242278276
403.2188437759485,0.0035943495286590013,0.002083465793809216,0.0015108837348497852
449.8119735679139,0.0004625602940534368,7.494185060524717e-05,0.00038761844344818963
484.3289765782402,0.0005438788789952581,0.00024719990752333873,0.00029667897147191933
509.12600612954566,4.8638665153561784e-05,4.3409528917141324e-05,5.229136236420459e-06
521.5304526490991,0.0058801857464132554,3.623351416348263e-06,0.005876562394996907
527.8710159994426,0.0006871339443475478,0.00013862475834801286,0.0005485091859995349
639.7445886174871,0.013764410634549985,0.0072465070616256995,0.0065179035729242855
652.9287280050738,0.0034635254237070675,1.1684756015557419e-05,0.00345184066769151
728.103159356578,5.2498486560989244e-05,1.974569784769285e-06,5.052391677621996e-05
728.9389504815799,7.954555377173562e-05,8.423530378540037e-07,7.870320073388162e-05
731.084013341684,2.380132791689224e-05,5.958176210872687e-09,2.3795369740681365e-05
736.8738810195022,5.150353335912137e-05,1.1814769879501751e-07,5.138538566032636e-05
749.3841420467833,9.903618435604156e-05,4.639817458156824e-07,9.857220261022588e-05
771.135140305935,6.4925837480666e-05,7.179595392045026e-07,6.420787794146149e-05
802.2827131774027,0.00021834498229467608,1.441766034080051e-06,0.00021690321626059603
840.809394610902,4.241785527975738e-05,4.222840225647799e-06,3.819501505410958e-05
885.0902670901424,0.0003408486753231991,4.493594377563993e-05,0.00029591273154755914
892.340359453532,0.05104525135088277,0.04368176919617655,0.007363482154706218
908.3397776731615,0.03131789892558207,0.018758016618285783,0.012559882307296292
932.3996218506412,4.071440505917778e-05,3.0745564481669504e-06,3.763984861101083e-05
979.2924548748642,0.00016905125635708544,1.01599933725e-06,0.00016803525701983543
1006.1257977546626,0.0004348567584973327,0.0002742905937344453,0.0001605661647628874
1014.5797773067013,0.004172105357620836,0.002789775921166746,0.0013823294364540897
1022.8044356569206,9.221063610675162e-05,9.392679801074767e-06,8.281795630567686e-05
1032.25712887248,0.002864853491841642,6.333059806794903e-06,0.0028585204320348474
1046.912847362256,0.0017104241257147822,0.0006856330375143559,0.0010247910882004263
1057.8464799986534,0.0001175793870907167,6.7800979460533526e-06,0.00011079928914466335
1062.992254545578,0.00515152626874011,0.003969795679681458,0.0011817305890586525
1076.9302766648761,0.0045545943019414965,9.851289477943522e-05,0.004456081407162062
1083.2100736079055,0.014996747693606868,0.00042873367509027566,0.014568014018516592
1088.8296930254169,0.10950183583242193,3.621965572879915e-06,0.10949821386684905
1091.9236819999135,0.0005273972335603868,0.00012205143884937756,0.0004053457947110093
1092.4474116950203,0.00150616107358949,3.372434937257603e-06,0.0015027886386522324
1093.0928368290179,0.004788278159501108,0.0014046875831355092,0.003383590576365598
1120.518049595038,0.053754114208119964,0.02706413849709243,0.026689975711027533
1144.5771177403574,0.004929685475110825,1.0242214594031944e-05,0.004919443260516793
1153.0273061066976,0.10961633581786917,0.060678539547264494,0.04893779627060467
1166.2682522564044,0.15337211652389654,0.09506768560027909,0.05830443092361745
1205.4660845148917,0.012552275490748596,2.9216161808583272e-06,0.012549353874567739
1220.8810465106574,0.000693708359676338,9.398351798685173e-05,0.0005997248416894863
1224.1203042723416,0.0009987042926803457,1.56728342043951e-06,0.0009971370092599061
1245.9087031701233,0.0005933505657283296,1.8356419139065627e-05,0.000574994146589264
1248.3308188583214,0.0007780027475510314,2.2813476398031817e-07,0.000777774612787051
1269.1589652214166,0.0008499551316471436,4.149339946146201e-06,0.0008458057917009974
1272.438166076857,0.0002505155872478377,3.1440029024503004e-08,0.0002504841472188132
1290.0842725048826,0.0016637163832402362,1.3720514256349128e-05,0.001649995868983887
1294.3100994351958,0.0025690223245630785,1.5405499363598793e-07,0.0025688682695694425
1310.9932159381167,0.0016512151499906084,2.8876565435161864e-05,0.0016223385845554464
1311.969014656203,0.0004970552245190635,1.6578642956583415e-06,0.0004953973602234052
1323.6419298473468,0.10177950669518811,1.764682108290415e-07,0.10177933022697727
1325.6815470671409,0.07308669192087142,2.1438133168633786e-07,0.07308647753953973
1329.3555470563858,0.0012015343009706375,1.053273473257288e-06,0.0012004810274973802
1333.7967814092133,0.0034338576700821922,2.5826068939923315e-07,0.003433599409392793
1334.0274258995244,0.0030192566941368458,8.096686604370448e-05,0.002938289828093141
1335.30017107665,0.010088281605217932,7.248495105554542e-07,0.010087556755707376
1338.4919316998826,5.102194261001779e-05,5.413470544721658e-07,5.0480595555545626e-05
1338.767532863071,9.01718104960126e-05,4.540759259190978e-08,9.01264029034207e-05
1357.8213982399266,0.001194986225369302,0.0002599201943748745,0.0009350660309944275
1379.413847615439,0.0029113415137282427,1.0870736370906093e-05,0.0029004707773573365
1397.792286631963,0.0006224364406932113,0.0001908045919888371,0.00043163184870437417
1410.6771044010331,0.001307370282912221,0.00036840052308841824,0.0009389697598238028
1413.2472805445352,0.0017676538928332276,0.0004580532421767208,0.001309600650656507
1419.2153414878662,0.004889593206414434,6.502562835629184e-05,0.004824567578058142
1420.7282483874435,0.00819729664212047,1.5922316111805904e-06,0.00819570441050929
1422.095686269855,0.00023541165524098293,0.00010613497186926944,0.0001292766833717135
1435.2414234292187,0.004335631161052642,0.0005838375479962525,0.0037517936130563893
1457.7616296031026,0.018263707385589058,3.749275540676496e-05,0.018226214630182293
1480.0450038890567,0.00044009139837253996,1.7801074726031387e-05,0.0004222903236465086
1480.258321759482,0.004465405293592433,3.454642255207438e-05,0.004430858871040358
1481.8472185254675,0.003449589742007443,2.687721440548681e-05,0.0034227125276019565
1482.4071507183367,0.0015196189636566782,0.0006186592985336858,0.0009009596651229925
1484.6433269958054,0.1276384175176059,0.009907497338846744,0.11773092017875918
1484.7422469469532,0.11186848220373555,0.007408886164727868,0.10445959603900767
1487.3611404237092,0.04793807408113744,0.0017822140162685428,0.046155860064868895
1490.9955820926716,0.0008073171867108225,5.874325752163423e-06,0.000801442860958659
1493.77211857753,0.02704284571564186,9.216526426233488e-08,0.0270427535503776
1494.987363155872,0.008522900639553925,0.0002004212366869428,0.008322479402866982
1498.9952304502506,0.000306970740847312,0.00016464795661071574,0.00014232278423659625
1502.574921699808,0.00255148862128216,4.661663824380953e-05,0.0025048719830383505
1505.2347699652507,0.0015355017232113967,0.00020537989594178767,0.001330121827269609
1506.4808668951869,0.0006559034698931909,3.27876938250056e-07,0.0006555755929549408
1839.3414836214079,0.04991180025476749,0.0303325968172157,0.01957920343755179
3021.317234339601,0.017838005436408837,0.01532642133002297,0.002511584106385866
3021.590502256964,0.007157540074472691,0.005932546869110581,0.0012249932053621103
3022.8108986701623,0.2032005014768743,0.1879994845807859,0.01520101689608838
3023.236288173631,0.009007355291686375,0.007193130498975754,0.0018142247927106212
3024.0631098938293,0.38742297476484017,0.3771250228685033,0.010297951896336862
3025.455863843317,4.145899631374379,4.068580013798517,0.07731961757586188
3026.8810867931043,0.16767614367425068,0.15688150027742853,0.010794643396822148
3031.1725973854636,0.04638776635408714,0.042548588904447265,0.00383917744963987
3035.4049106489765,0.07896986588055105,0.0706479475481581,0.00832191833239294
3039.1028240859223,0.0798171000052316,0.07367572915786573,0.00614137084736586
3041.1517389325063,0.39482675367999437,0.3634937365825326,0.03133301709746179
3042.996108987911,1.433457523032556,6.281149377653024e-05,1.4333947115387793
3044.2126982098016,0.07817283560291532,4.200348171597066e-06,0.07816863525474373
3046.130624054185,0.45590504532739645,2.1605537521158867e-05,0.4558834397898753
3049.2599638440133,0.008016464149655164,1.0434095231580194e-05,0.008006030054423584
3049.7954088579286,0.9093481320327668,0.9020247514620292,0.007323380570737545
3053.550758955903,0.10662614705969127,0.00014524852405354367,0.10648089853563773
3059.8633998668465,0.0697084217451725,0.06210720655294393,0.007601215192228563
3060.1610782894504,0.9166275631362669,0.8764611513617043,0.04016641177456263
3067.163070002307,0.0770931675945684,0.0001475559711770372,0.07694561162339136
3069.068609067591,0.0470659589484565,0.041144398125342936,0.005921560823113564
3074.05709461472,0.016266603426125813,2.8539159985170754e-05,0.01623806426614064
3080.09964243224,0.07676655294910348,2.3389757135292703e-05,0.07674316319196818
3085.4832741769014,0.001302974910181902,2.0267702850809384e-05,0.0012827072073310925
3089.3230322626996,0.04923067106985543,1.7995411849959356e-07,0.04923049111573693
3092.6985666322876,0.21098315885893457,0.00043472555874550604,0.21054843330018905
3112.1458357667852,0.0035677434526795774,5.075021037804349e-07,0.003567235950575797
3112.6643952348763,0.127824593521579,2.049928479484653e-06,0.1278225435930995
3121.111413838033,0.41140011254880726,0.06397856698818156,0.3474215455606257
3798.439390792918,0.49050053306377994,0.30467934548361764,0.18582118758016228
