frequency_cm1,total_intensity,isotropic_intensity,anisotropic_intensity
1.4661668092323883,0.0,0.0,0.0
1.0517008615921661,0.0,0.0,0.0
0.7276338551069387,0.0,0.0,0.0
3.0465218351794095e-05,0.0,0.0,0.0
1.1379501133836343e-05,0.0,0.0,0.0
2.059347642554732e-05,0.0,0.0,0.0
12.541591772725853,0.010944902419823977,3.614362856368302e-05,0.010908758791260294
23.081524840128296,0.00312791466356762,8.775937176019973e-06,0.0031191387263916
24.53234445769722,0.005051790736116937,1.9959922010065244e-05,0.0050318308141068715
29.18072092878772,0.009558335941712728,0.0005212318715886933,0.009037104070124034
38.12569969819598,0.018088152272275587,0.0018817040039551345,0.016206448268320454
45.33811270924595,0.020934023990145902,0.00038942090215250794,0.020544603087993395
52.732603173714615,0.002157447166514687,0.0007500409329128675,0.0014074062336018195
72.47420313029129,0.009782692256505715,0.001409046306994925,0.00837364594951079
75.05802211387702,0.0027944615838060814,0.0004921850756153635,0.002302276508190718
79.90953667213248,0.0042985652167424745,0.0007100380271856569,0.0035885271895568175
88.04354113910375,0.0017029062951328948,0.00020137197203255438,0.0015015343231003404
98.91708610549509,0.015925395111262366,2.4807317791854892e-05,0.015900587793470512
104.90534445541196,0.002231462623900335,0.00010701137528094497,0.00212445124861939
133.88677789803572,0.010361837884052892,8.559241691882803e-06,0.010353278642361009
183.22991770397394,0.0010890902980579392,8.079154988108417e-06,0.001081011143069831
196.21772147286526,0.006466753425059162,0.00011606179576057703,0.006350691629298585
215.44812422911795,0.010268831449495938,0.00845156142622628,0.0018172700232696579
239.69040280057337,0.0038306232783389205,0.00017523597522698295,0.0036553873031119374
249.34884507042943,0.0027136997648427577,0.0013633424875190321,0.0013503572773237258
258.11117946568777,0.000998814105150034,0.00016029459132975972,0.0008385195138202743
282.57182771784323,0.0005783584003341453,7.571812289921611e-05,0.0005026402774349292
311.1400860744703,0.005650212828671623,0.00014436146025723857,0.005505851368414384
327.49925038254895,0.003485213037633132,0.0003514368846658205,0.003133776152967311
348.8496924620303,0.0053721735050014634,0.004161477133461191,0.001210696371540272
375.3175484627228,0.004221458025616,0.0015081102801766978,0.002713347745439302
380.7710255657938,0.0015626734904955744,6.825621405921764e-05,0.0014944172764363567
386.3563317072617,0.0226507002825021,0.0148630490623647,0.007787651220137401
404.56075330013545,0.0012625075008778318,3.9811872425082794e-05,0.001222695628452749
413.54412265648136,0.0026158775594782363,0.0010087855479702292,0.001607092011508007
419.89100519195347,0.0005749087152754009,0.0003615974439560392,0.0002133112713193617
423.3127188295148,0.0012234012028324544,1.1094783924965714e-07,0.0012232902549932049
445.519158909211,0.008872387491969476,0.008134318982888229,0.0007380685090812467
466.17299244965204,0.006325572829393514,0.00018445541556685115,0.006141117413826663
484.1329200797901,0.0026827629617053746,0.0017365229115633163,0.0009462400501420585
516.5602366418875,0.002555059764006161,0.00059464104947431,0.001960418714531851
518.2223384658091,0.0064553970558081045,0.002524018133005106,0.003931378922802998
520.026087221312,0.013522241141581234,0.001771612838518753,0.01175062830306248
533.9143628188516,0.01777020440496988,0.006794309711514332,0.010975894693455546
581.6039312659718,0.006863436352565351,0.0056196641866491735,0.001243772165916177
618.2967420917298,0.00222387958560794,0.00040700094341566614,0.0018168786421922738
630.1805898956733,0.013129680159789058,0.00010776432458592534,0.013021915835203133
631.0403636137761,0.023732012510852607,5.722062257478611e-05,0.02367479188827782
653.6646121593209,0.010577369743592847,0.006095832263539285,0.004481537480053562
666.5907360465345,0.011711837507571213,0.004037900359625879,0.007673937147945335
698.7590440306312,0.012263027884833551,0.00017010906713640057,0.01209291881769715
711.3470899217383,0.0006030398278363441,2.3285395442163496e-05,0.0005797544323941806
719.7559902944025,0.004823225575579853,0.0007219590834998623,0.004101266492079991
729.1370597425102,0.0026769034323652664,4.6785755207553876e-05,0.0026301176771577127
779.8420153252987,0.0019944747582734765,0.0008717351976208208,0.001122739560652656
782.3833096048661,0.009184085898633808,0.004244346627898509,0.0049397392707353
785.7562114728381,0.007722046974068933,0.004862962598107536,0.002859084375961397
789.3350128720894,0.0031886315919737083,0.0010276518165025315,0.002160979775471177
810.823505454108,0.034744207561278634,0.020330792337145947,0.014413415224132684
822.0592617632267,0.0041584691468576065,0.0020934853344148742,0.0020649838124427323
840.2358408414406,0.034500774254856176,0.028775479439305984,0.00572529481555019
853.821134671325,0.01685168611727724,0.015627822568316588,0.0012238635489606538
858.1748776841492,0.10837416646572007,0.09506436836367768,0.01330979810204239
863.1968913592603,0.019077095134466385,0.015513653115161306,0.0035634420193050797
871.2862057089865,0.030388128096086618,0.021665357311437997,0.00872277078464862
887.7270482512495,0.014837233209012996,0.013307857612480828,0.0015293755965321682
895.2887839760067,0.0030862350673048922,2.150158257949987e-05,0.0030647334847253922
920.647958721479,0.00705640462429351,0.0002587004352212993,0.00679770418907221
931.2881219503681,0.0018317116477943533,0.000487188338570137,0.0013445233092242164
936.5912097124124,0.001322377343537032,2.1917889162213835e-05,0.001300459454374818
939.4149183028567,0.004963454209247232,0.0003951544024430867,0.004568299806804146
965.145136781622,0.02677534233559031,0.0041055533906259,0.02266978894496441
977.3584706217456,0.0024808807909149563,4.196852294787742e-07,0.0024804611056854775
1001.18608750663,0.0004853761414313048,0.0002948797959127454,0.00019049634551855942
1004.8400572471013,0.000529737894138061,0.0001402551900916749,0.0003894827040463861
1022.7813693711315,0.014634889447213799,0.008006213116693842,0.006628676330519957
1024.2248413920722,0.006677577341025957,0.0048317488527877,0.0018458284882382572
1026.0615139183817,0.1325603820176647,0.11650804592433577,0.016052336093328932
1027.5647632439316,0.14036041216698836,0.12539907523043173,0.014961336936556626
1031.0690527910572,0.06561244627710373,0.056171687309019766,0.009440758968083966
1037.7609070359438,0.02342204714229056,0.016870500682659165,0.006551546459631393
1058.4461563475447,0.01125104693481939,0.007280179650147896,0.003970867284671492
1065.1161437269648,0.07685812416794799,0.034732029225819507,0.042126094942128475
1067.7259104849636,0.04631795016882395,0.035889963578228073,0.010427986590595878
1069.1000599564659,0.11368916312016979,0.1034864185142259,0.010202744605943897
1082.799879078017,0.010397018766924086,2.461981984924485e-06,0.010394556784939162
1097.2093094680251,0.014326220617277776,0.0012438195979912702,0.013082401019286507
1117.9630641021786,0.0021877329840248026,2.7143348159513607e-05,0.002160589635865289
1121.1774429093975,0.006221800192375919,0.0006768577056821764,0.005544942486693742
1137.5248587736844,0.005087427002009713,0.00012737895227909435,0.004960048049730619
1151.8187243972172,0.00883190502439633,0.0007601134886093914,0.00807179153578694
1158.2957252778824,0.05135387406727109,0.020854968799351267,0.030498905267919825
1172.8645271301266,0.004569122356510248,0.0006715009939279761,0.003897621362582272
1175.9166442129394,0.023638213944314885,6.129182175883365e-06,0.023632084762139002
1176.337917678454,0.01490504714204335,0.00011823692451586199,0.014786810217527488
1179.606399174698,0.005732043391622925,0.0008725622954303063,0.004859481096192619
1201.0482727979045,0.016527336255044947,0.0008643579021580758,0.01566297835288687
1206.720203825852,0.024681714761347836,0.013795247631083484,0.010886467130264352
1213.5011993621315,0.03094386300232953,0.013762715911292089,0.017181147091037442
1232.6878482631982,0.019125694381802522,2.6122468529837215e-06,0.019123082134949537
1255.7254329898494,0.03714771355538772,0.02559397429447024,0.011553739260917486
1257.5196529864093,0.15074431610616498,0.1160540555219203,0.03469026058424468
1288.5976331367635,0.010338325819461484,0.000990918897852989,0.009347406921608495
1300.6141030987244,0.025344392095679426,4.007540993013226e-06,0.025340384554686412
1310.8976898669553,0.012246535995526577,0.0010155758195078996,0.011230960176018677
1320.9430458834834,0.0632144406678801,0.03149623957372738,0.03171820109415272
1322.529672543747,0.17022108558997248,0.11812483147760583,0.052096254112366645
1325.7796262635684,0.044481645790347746,0.005332302700270578,0.039149343090077164
1335.827488369525,0.04243214966722106,0.002340157458619809,0.04009199220860125
1342.1312555123998,0.009848796156003849,0.0006326551367716301,0.009216141019232219
1355.4817796356738,0.0454311288881771,0.03347829483470939,0.011952834053467715
1357.2131656973024,0.015404073116460021,0.009135567720004158,0.0062685053964558635
1358.0083958479977,0.011590736351292978,0.00814881899758772,0.003441917353705258
1367.467765082497,0.004466562663325018,0.0018202257011295162,0.0026463369621955017
1389.3654892931409,0.025967202268876378,0.015607662532268772,0.010359539736607606
1390.3895030676888,0.02226681206208414,0.008297601234252543,0.013969210827831598
1391.9396492036926,0.00550179461582485,0.0014265419163209223,0.004075252699503928
1396.9196756154283,0.006307854565294703,0.0013560938497166979,0.004951760715578005
1411.6434991242697,0.0055289423938771984,8.502017545732081e-05,0.005443922218419878
1420.1868796633848,0.01691353737987004,0.007724507950420568,0.009189029429449472
1428.1518644769262,0.0019006002797690462,0.0007834763991541804,0.0011171238806148658
1446.2948431471764,0.024310358913893448,0.00453761746789062,0.01977274144600283
1462.0672854837105,0.10195128339954534,0.0655104546587622,0.03644082874078316
1465.2777353296744,0.10504410660823432,0.07324619589260353,0.03179791071563079
1473.8370492010872,0.04183507647564282,0.00010019240973354868,0.04173488406590927
1481.1785276000194,0.03947870956577654,0.0006444738436372069,0.03883423572213933
1482.6806405609711,0.012903777892024149,0.0006368659218997952,0.012266911970124354
1488.4652141663407,0.04702267086425051,0.004631605538717825,0.04239106532553268
1491.7739950806374,0.008227763366862494,0.00020218427613623622,0.008025579090726258
1507.5816670583415,0.016040746272316563,0.0018799305123215612,0.014160815759995001
1512.0215642990458,0.040591473015260365,0.014288187716491227,0.026303285298769137
1527.119070192242,0.03141027381261895,0.02017646493837827,0.011233808874240676
1531.7150996595383,0.03704588123738471,0.022673844433295932,0.01437203680408878
1551.4512245060525,0.05595343250782493,0.03422476703592154,0.021728665471903393
1554.753903593253,0.15239262538994885,0.10126742164870702,0.05112520374124183
1667.4712060879476,0.03346795668090303,9.511688476626271e-05,0.03337283979613677
1669.7586813993394,0.03673529694983318,0.00044457410345726396,0.03629072284637591
1683.0678911526163,0.31465096231858747,0.06814581585002238,0.24650514646856506
1685.1389115622703,0.32603520115277795,0.061023834708546755,0.2650113664442312
1795.8045965762194,0.013938970948110658,0.006296554566701252,0.007642416381409405
1799.3071909608564,0.10315530770632811,0.0593762832549729,0.04377902445135522
2926.1091771048686,0.08478444124006791,0.017566099285050193,0.06721834195501772
2930.948049534431,0.795916054833113,0.5683369957226017,0.2275790591105113
3021.1861167124707,0.310770798008677,0.2521511482292851,0.058619649779391936
3034.0619053088712,0.7318451908534247,0.5579524029066514,0.1738927879467733
3056.5840995418175,0.4717518127478154,0.312703840617803,0.15904797213001243
3059.656676803865,0.4617426384908907,0.33352967537540285,0.12821296311548785
3093.224707364457,0.9345827216998863,0.5234345406289992,0.4111481810708871
3101.5917030660416,0.07456749617840289,0.0007897013121556312,0.07377779486624726
3102.302332741012,0.36576300409641027,0.04345351456556637,0.32230948953084393
3104.068760780219,0.5996680374507832,0.41086227116468305,0.1888057662861002
3108.121389101901,0.3300930352245265,0.03475039430177234,0.29534264092275414
3110.059579142337,0.2811781204263659,0.18509738716270524,0.0960807332636607
3119.72886602976,0.7899415610677243,0.5693808452503595,0.22056071581736478
3126.368574556862,0.26033091186283175,0.22634655445771756,0.0339843574051142
3180.741649468564,0.1362149150038494,0.007908871352693626,0.12830604365115578
3187.868271443775,0.23112330815314935,0.03848163678276796,0.1926416713703814
3189.546942245444,0.1910332304364859,0.029584239611890602,0.1614489908245953
3202.139251284478,0.48940747129885304,0.08304952599929345,0.4063579452995596
3203.9640762772583,0.44703532069717095,0.10923538224407452,0.3377999384530964
3212.13432202229,0.29413844950125256,0.022482448360176627,0.27165600114107596
3212.3629517464333,0.3623092248068379,0.08616384182081038,0.27614538298602753
3222.814002371134,1.09696096432972,0.8910019870064734,0.20595897732324664
3225.956262159025,1.0481270679417156,0.8135094845460787,0.23461758339563688
3256.6135793159665,0.36079054810688954,0.26679936102543195,0.0939911870814576
3262.8124467648295,0.37158113040194196,0.23446672796475065,0.1371144024371913
3677.1028477336317,0.4151719100948887,0.3189112238513311,0.0962606862435576
3678.8748733927473,0.4577736500263955,0.3638674414619328,0.09390620856446266
