frequency_cm1,total_intensity,isotropic_intensity,anisotropic_intensity
1.1364300263951447e-05,0.0,0.0,0.0
1.04185438420617e-05,0.0,0.0,0.0
6.498675387132972e-06,0.0,0.0,0.0
0.696015411102924,0.0,0.0,0.0
0.8087989557400163,0.0,0.0,0.0
2.7092172512346924,0.0,0.0,0.0
19.417637734017333,0.02613919073435688,0.004192192130969571,0.021946998603387308
39.40673724652229,0.011655110816625082,0.00023677380615299063,0.01141833701047209
51.33105286703675,0.022249114344215063,0.0007333213762439086,0.021515792967971153
58.928899642989755,0.015318554457937462,0.00094995396367759,0.014368600494259871
97.96171638151216,0.013883462288274275,5.550771609829119e-05,0.013827954572175984
126.32810015734835,0.0027639989665580924,0.0004687268110060735,0.002295272155552019
171.64619216365713,0.01049729356137756,0.008737660522994982,0.0017596330383825788
204.91756655437933,0.01362930299812307,0.002341980758374668,0.011287322239748402
223.09379117088523,0.00023412009433223605,1.1315455356465667e-06,0.00023298854879658947
250.22202668595241,0.007920369499502108,0.004475920316067662,0.0034444491834344456
261.83031576158896,0.012478294541754677,0.00608267630395635,0.006395618237798326
313.29806762726975,0.011190125909358573,0.0025919789164089856,0.008598146992949588
338.2592727228147,0.00704190610262687,0.00187076707833049,0.00517113902429638
362.9402586532649,0.01950208568453126,0.010644307502972749,0.00885777818155851
370.35707899135014,0.017196005775087113,0.009611945629755668,0.007584060145331447
411.926859355973,0.016561966129182155,0.005556469611380123,0.011005496517802034
421.2847771573819,0.0022586510178543772,0.0014421243806287743,0.0008165266372256032
427.83145107522836,0.004360306920284423,0.0009791499430550007,0.0033811569772294217
440.65236292477493,0.03740763112379611,0.024005375402999084,0.013402255720797028
478.6261387550373,0.005293919236785007,0.0012296022664462752,0.004064316970338731
512.0962324973871,0.01635993171996627,0.0077157756180135225,0.008644156101952747
520.5178025693667,0.02628096621418613,0.011589002986062366,0.014691963228123765
550.273898276938,0.04130766062742221,0.018809661525306158,0.022497999102116053
592.3038446302623,0.016568723223258655,2.1380275653471818e-05,0.016547342947605185
631.4958089496914,0.010102917879682188,0.0004486674439511009,0.009654250435731086
646.2153044485251,0.018042409405707262,0.0038535041856525977,0.014188905220054665
670.981191452833,0.04406355747930299,0.016200205595598507,0.02786335188370448
716.3644199043562,0.0015510802709530521,0.0002592967094176729,0.0012917835615353793
743.3543585979911,0.01231254448037402,0.004560268676155337,0.007752275804218684
772.7720205560609,0.017519249599931515,0.0022826859542201044,0.01523656364571141
809.6761520022798,0.005464963235749433,3.710019899123046e-05,0.005427863036758202
834.0915098823692,0.007861305970781144,0.002246760034378847,0.005614545936402296
846.0816642219821,0.09458120834804831,0.08779151274204085,0.006789695606007464
850.8344881109443,0.08972441811792312,0.07990629038218132,0.009818127735741795
870.6720979564959,0.028768994779348012,0.0224841458720362,0.006284848907311812
874.6062905815738,0.03789681913980133,0.02784207389828031,0.010054745241521019
905.8840919846962,0.022752291386566342,0.010094179718029703,0.01265811166853664
914.2183467337107,0.008563746621445677,0.004827628259134705,0.003736118362310972
934.3980043904133,0.004731781609333952,0.0002687628311590516,0.0044630187781749
962.0479532481071,0.010224300214193531,6.79563180094058e-05,0.010156343896184125
966.0166676197769,0.001858253752647117,0.0008660295002073811,0.0009922242524397359
986.6479643718366,0.0037402744843980096,0.0017645776918215805,0.001975696792576429
997.4546722497117,0.006151424177627082,0.004624827386922666,0.001526596790704416
1002.6844639697617,0.08442199163733391,0.06444772747279971,0.019974264164534204
1017.005010470888,0.0006548058073978951,2.0555613338672052e-05,0.0006342501940592231
1018.0872733847532,0.28913003179116537,0.22659993349834293,0.06253009829282241
1036.5558485747138,0.0028185992750165115,0.002205908660641944,0.0006126906143745678
1064.1470651306977,0.2030198236932899,0.1663017086817378,0.03671811501155213
1116.7940476291683,0.01730236576557171,0.0012379929020088954,0.016064372863562815
1136.084020830366,0.004295596771863212,0.002558956335383163,0.001736640436480049
1156.4894323621945,0.021560437933608807,0.0025694033822296174,0.01899103455137919
1171.7363764516624,0.040190249300496056,0.0029650913628891896,0.03722515793760687
1179.2773542795908,0.048688485955698135,0.02962509887236284,0.019063387083335298
1200.2966367625972,0.204131318546469,0.14237481030202204,0.061756508244446943
1205.2758235392796,0.023533612869513457,0.011889857322512317,0.01164375554700114
1209.3212218282267,0.03200261624996952,0.010918564853783076,0.021084051396186444
1252.445324413782,0.005621627531263243,0.0043260103203255325,0.0012956172109377107
1260.3612478813204,0.3561039452886037,0.2492983651672616,0.10680558012134207
1293.2274089673235,0.3996068625659145,0.23733915806927885,0.16226770449663563
1318.875382236781,0.020309364561696103,0.01203899861160414,0.008270365950091962
1337.4087965962392,0.0995841858573408,0.062202001123882585,0.03738218473345821
1353.8523761560523,0.15505381605033644,0.07420800714831784,0.0808458089020186
1359.1542576628572,0.02684640217647607,0.0030637638786378137,0.02378263829783826
1359.899012841509,0.01992091664587427,0.001827769994209841,0.01809314665166443
1368.0066335038125,0.010496304165333405,0.0006366075501431051,0.0098596966151903
1400.8640843647854,0.0013224042965971536,7.360599952049928e-05,0.0012487982970766543
1417.4754020804876,0.004502539629062293,0.00232108907226437,0.002181450556797924
1438.796795789629,0.020202539838557364,0.0002478668229454923,0.019954673015611872
1474.1099487560114,0.11170652099320987,0.02458684689135744,0.08711967410185242
1482.215772188907,0.03677742339004715,3.0123082304518903e-06,0.0367744110818167
1484.586599149357,0.01031180727941258,0.0006574140299130445,0.009654393249499536
1493.7870223303712,0.03272722247812066,0.0033351372182099524,0.029392085259910706
1504.348639591654,0.005882598602898418,0.00046695876119743517,0.005415639841700983
1528.7339071372846,0.013221509681178672,0.007370841337931319,0.005850668343247354
1542.3757437111883,0.013054382337360688,0.006127656893551508,0.00692672544380918
1555.5797668910423,0.015102011282537086,0.00782616377868474,0.0072758475038523455
1569.5544117074621,0.004071634894501052,1.948294984150393e-05,0.004052151944659549
1659.5779735181097,0.02562039684966841,0.0005278927600707948,0.025092504089597616
1664.977231038366,0.052039092103473246,0.012155474169170346,0.0398836179343029
1681.5666185818227,0.4079405490657844,0.0701402910245617,0.3378002580412227
1699.585774891537,2.1541159124445217,0.8147803535287055,1.339335558915816
3052.3206991920474,0.03815441933877735,0.0005985906024986465,0.037555828736278704
3054.1697377365663,1.8723386685065935,1.792478486160558,0.07986018234603552
3065.754055271384,0.15786858681768737,0.015136994753349016,0.14273159206433836
3118.3629818254667,0.10049280575847575,0.0020590603759804644,0.09843374538249527
3125.603616050277,0.7295326616806856,0.283895409230701,0.44563725244998464
3139.120182791052,0.14371771826589116,0.000119983508012154,0.14359773475787901
3150.1777061473376,0.3594779493091316,0.0003776340940918191,0.35910031521503977
3181.6327237430846,0.2509168770018828,0.08927263835386774,0.16164423864801508
3185.215280889502,0.16166385813101247,4.0541158984887006e-05,0.1616233169720276
3188.350253069585,0.34777461493461,0.10140004781349228,0.2463745671211177
3193.713211149392,0.49748328283305276,0.1374571786907999,0.3600261041422529
3203.125656973464,0.5450870459777963,0.14751174257395813,0.39757530340383823
3209.8721058223596,0.329630043796875,0.22316880062504113,0.10646124317183385
3220.2419898983694,0.8208351284836128,0.547519462311864,0.2733156661717488
3220.972106958423,0.5163725925294701,0.32699759404353246,0.18937499848593767
3228.493450575564,0.7979014164836898,0.6331636688156418,0.16473774766804802
3621.659325824411,0.4220192170803892,0.30075274513434425,0.12126647194604494
3665.060805870441,0.46751646973772076,0.3855136397985364,0.08200282993918437
