frequency_cm1,total_intensity,isotropic_intensity,anisotropic_intensity
2.9570869525365513,0.0,0.0,0.0
1.0967276021342605,0.0,0.0,0.0
0.8248103187779229,0.0,0.0,0.0
3.4414339000408656e-05,0.0,0.0,0.0
2.6724419739491364e-05,0.0,0.0,0.0
2.955059324929815e-05,0.0,0.0,0.0
17.77924309657498,0.0023358416890833533,1.1104258738676276e-06,0.0023347312632094855
31.39099868660699,0.001564314244292641,3.212164055235847e-05,0.0015321926037402825
39.00201019840915,0.001006964458787622,3.806372146853229e-06,0.0010031580866407689
61.85202666565929,0.00045311410021641255,4.404063989373201e-05,0.00040907346032268056
76.67711921374038,0.0005738052166074499,1.2404108404485561e-07,0.0005736811755234051
95.12584709503594,0.00024423446961549175,2.1805570267029e-05,0.00022242889934846277
111.22310045851303,0.0001777470878661445,2.7543328306258742e-05,0.00015020375955988576
120.66757412192345,0.0002471056721846639,0.0002359460348723994,1.1159637312264468e-05
129.57852841027477,0.0002037974135011897,9.499866243348145e-06,0.00019429754725784154
136.75138780399155,0.00014825256549813224,9.365917901008367e-05,5.459338648804855e-05
156.4478133140991,0.0021736427398743657,0.0020461820509196267,0.000127460688954739
206.41733837019575,0.005405430095098818,0.004416244846796961,0.0009891852483018566
224.278688456552,0.00151461179040726,0.0011499043631086191,0.00036470742729864084
239.34920595638295,0.0005954916251845917,2.2266740247645052e-05,0.0005732248849369466
246.4546043940007,0.00013247731362744743,4.4409848160050624e-05,8.806746546739681e-05
266.6645773234546,0.0056432864381053965,0.0006188420215717733,0.005024444416533623
289.65400409497653,0.0028333539928039773,0.0015704398231458309,0.0012629141696581464
329.2688521971257,0.007150045949621241,0.005180540513900561,0.00196950543572068
370.9566382973657,0.0011100220781880667,0.00030579600102624246,0.0008042260771618244
404.7155117635412,0.006965724830295995,0.0016799137357387907,0.005285811094557204
448.3805252876273,0.013871392022375894,0.010910095399317527,0.0029612966230583675
466.5996805382729,0.009639335570172498,0.006195977308933033,0.0034433582612394664
506.42143839651624,0.004531446037212822,0.0015701260828691144,0.0029613199543437074
539.8117386339391,0.0014801709450230189,0.0006379353706697208,0.000842235574353298
726.7137063818946,0.0004935042227077749,9.914189255161183e-05,0.0003943623301561631
734.4824509865151,0.0004685726351491665,2.0179967698026484e-06,0.00046655463837936385
753.4678191014548,0.0007674470862480136,7.917078454498605e-07,0.0007666553784025637
777.7047946606925,0.0015217734387192718,0.00017310712293856065,0.0013486663157807111
782.1627394113254,0.004033366493015782,0.0017805358795684823,0.0022528306134473
831.4852547064274,0.0022015969825352837,0.00017229447016899613,0.0020293025123662876
872.1657683484033,0.02147349609119329,0.019586236080451066,0.0018872600107422252
897.6032031609549,0.006318487276631693,0.002228628536619523,0.00408985874001217
907.778936337981,0.022666974358312754,0.008627875881740115,0.014039098476572639
937.2475518356852,0.04427484237755566,0.03353186241308965,0.01074297996446601
961.2909148104991,0.005029569764698383,0.0002408178470960867,0.004788751917602296
991.3552746578481,0.03388474865217701,0.0166860249702108,0.017198723681966212
1016.6212742887443,0.003218791669636588,0.00044528716366473584,0.002773504505971852
1039.0233276434449,0.014053468004297534,0.004182180209345671,0.009871287794951864
1045.220257268656,0.010597333919566205,0.007133087085123129,0.0034642468344430752
1058.3292940027725,0.028739064735668153,0.020838935840766994,0.007900128894901158
1066.1196246555633,0.015646176741078772,0.005652306053614679,0.009993870687464095
1084.475293273759,0.051353920893920366,0.017202155779595496,0.03415176511432487
1087.3706148891872,0.01869284735890594,0.0006450037105628298,0.018047843648343113
1095.038683709661,0.01161701439174661,0.004931106520144927,0.006685907871601681
1107.060246802256,0.04067977183096725,0.00030771887771615985,0.04037205295325109
1117.0238167568507,0.013462346370237424,0.0051142812101213865,0.008348065160116037
1131.8152231161912,0.022295608979123395,0.011904893266625083,0.010390715712498312
1161.0325948950633,0.018609318216502062,0.0022161152743624796,0.016393202942139584
1167.4129296892252,0.027824351104670964,0.0005211761909877843,0.02730317491368318
1197.1033973673495,0.048449340483839365,0.032461702973535705,0.015987637510303663
1230.2886445479753,0.009264993430420093,0.006794586347045159,0.002470407083374934
1250.4182146043577,0.003317931544416202,1.9421476438111818e-05,0.00329851006797809
1261.2580747554816,0.002782137872071414,0.0013887476166938109,0.0013933902553776032
1269.6931436972131,0.005613269798403118,0.0009844298195538581,0.0046288399788492595
1281.945461808095,0.0057290791198997704,0.0007767604134316583,0.004952318706468112
1295.9585078258106,0.004606730072356406,0.00030028258270499637,0.00430644748965141
1310.689103750733,0.017134530176272894,0.0012124838548282664,0.015922046321444627
1327.1315606101982,0.0017846771268930455,3.2821615349365595e-05,0.0017518555115436799
1329.1767647486517,0.007145693961741475,0.0013603345619147094,0.005785359399826766
1332.1167613526304,0.016863806196622064,8.912915618154631e-05,0.016774677040440517
1335.09913377712,0.07238288049991816,0.0008483168356336498,0.07153456366428451
1342.004947295629,0.01649810424665912,5.212051943958411e-06,0.016492892194715163
1343.332801390663,0.010135262517571427,9.066361912134793e-08,0.010135171853952307
1351.860256417081,0.013498824497516233,0.0008240865510669507,0.012674737946449282
1391.252445139904,0.0016421718757595437,3.84859948472549e-05,0.0016036858809122887
1398.4732688572192,0.0010705829127503335,0.00012616350184756832,0.0009444194109027651
1401.344574285387,0.013274523301497395,1.189579312047859e-05,0.013262627508376916
1412.9156996180523,0.0012155492749185135,0.0007578483101373435,0.0004577009647811701
1414.9876204072839,0.003864670261172226,2.2619428436029776e-07,0.0038644440668878658
1417.7073535768511,0.005510896047853754,9.43038692804944e-05,0.00541659217857326
1419.2232199439381,0.005963672974779304,0.0011488368913628835,0.00481483608341642
1448.7915189628136,0.016239206938607833,0.0001539652801489499,0.01608524165845888
1473.1378609072115,0.017796918158302113,0.0014731117447686045,0.01632380641353351
1480.862691854286,0.03833946229242049,0.0036092326156823636,0.034730229676738125
1481.273271805014,0.026773528335629213,0.0017503069853111338,0.02502322135031808
1483.857548870653,0.05304160824746403,1.2769974763156984e-05,0.05302883827270088
1484.6910683122273,0.051799040023599766,9.17453791798053e-05,0.05170729464441996
1488.5749168586387,0.017529064697989247,0.0008908701765942944,0.016638194521394954
1490.2005523978057,0.011254166852632894,2.3794439419784163e-06,0.011251787408690915
1493.8183028810129,0.026888852185837062,4.7835101185839975e-06,0.026884068675718478
1494.2009097990228,0.016979102835962462,0.00015624417495413225,0.01682285866100833
1497.5781787007484,0.004657364473187564,4.939468532303272e-05,0.004607969787864531
1503.04252079111,0.015122530525653648,1.4926807871882028e-05,0.015107603717781765
1503.4380807325506,0.001757625605648379,7.6302130049162e-07,0.0017568625843478874
1505.28414567277,0.0027605754522082382,1.929813297757043e-05,0.002741277319230668
2983.9847804437863,0.3742604421275487,0.2132901932651785,0.16097024886237019
3022.729076589662,0.09214127477896147,0.054216451536117226,0.03792482324284424
3024.498866297303,0.4423618257212943,0.4199979444792691,0.022363881242025187
3027.1204149704563,1.4892850704442573,1.2866913636827244,0.20259370676153277
3031.146886658278,0.09081275076324602,0.05566758819319105,0.03514516257005496
3033.870223372486,0.5186423866228013,0.46315767847455946,0.055484708148241774
3034.9432450949307,0.1653571995691822,0.023516956663818995,0.1418402429053632
3036.016201612943,1.0526699770206864,0.9160620511793724,0.13660792584131387
3041.093545355552,0.34628909393324253,0.2918614226039149,0.05442767132932763
3049.9026017711312,1.0556741627673185,0.9022659314824246,0.15340823128489398
3050.1387157293334,0.24088125197532745,0.13349905490956016,0.1073821970657673
3050.829638319549,0.31049628894077086,0.015369364482613387,0.29512692445815747
3057.1181678389316,0.956857267232857,0.9339129071474758,0.022944360085381265
3059.692968473367,0.25811938388879296,0.04205283494610823,0.21606654894268476
3061.9346382826134,0.6824491307613566,0.432243868680529,0.2502052620808276
3074.8425807351296,0.13020898631450492,0.0006869637939890382,0.1295220225205159
3079.1991314871666,0.20683654303074794,0.026264633614119674,0.18057190941662826
3080.919310907001,0.07844273709496781,0.016368485659214782,0.06207425143575303
3090.3770342828207,0.07207602400716813,0.004341980716176267,0.06773404329099186
3091.713269035734,0.2965027776599952,0.12245636444713394,0.1740464132128613
3110.1644241443055,0.011502123534324366,0.0049087595087385204,0.006593364025585845
3113.0521201929914,0.13303135773172245,4.622583806200037e-05,0.13298513189366046
3121.053352595551,0.3251144409546858,0.08625250359526854,0.23886193735941727
3121.1830670924674,0.39500014474596473,0.056882727605028,0.33811741714093674
3133.114759806176,0.1835616058683501,0.0013994972888584426,0.18216210857949167
3864.3311565771737,0.4886437058435344,0.2893441171597215,0.19929958868381287
