frequency_cm1,total_intensity,isotropic_intensity,anisotropic_intensity
0.7535691135427789,0.0,0.0,0.0
1.9004591944035113e-05,0.0,0.0,0.0
1.445426505013208e-05,0.0,0.0,0.0
2.5635024072145188e-05,0.0,0.0,0.0
0.7285036481069393,0.0,0.0,0.0
1.0323510954883655,0.0,0.0,0.0
4.002156520837425,0.0,0.0,0.0
6.573353222222476,0.001832793431421173,4.755032748680503e-06,0.0018280383986724925
11.055257333317114,0.0022885468727082254,6.5750016387677786e-06,0.0022819718710694577
22.334047002516158,0.0006029382639231113,7.569025344186486e-07,0.0006021813613886927
23.924655120356995,0.0012093732155368845,4.967072399230439e-05,0.00115970249154458
35.606039653155975,0.0034267944975528417,7.317945125632504e-07,0.0034260627030402785
44.15278091442805,0.0025409824590782895,5.534532695703899e-06,0.002535447926382586
46.4480874694685,0.0010867004452129896,3.186846317865406e-06,0.0010835135988951242
49.66693494940433,0.0005192320209716117,4.606391391489766e-06,0.000514625629580122
58.1837466007586,0.0006136199259591826,0.00010896417410886744,0.0005046557518503152
62.45285714747948,0.0004927447283000669,0.00014994162178126963,0.0003428031065187973
66.47041473778394,0.00042128607147943385,4.254509904205603e-06,0.00041703156157522827
70.60855191243387,0.0009957224930849265,5.4149628470747834e-05,0.0009415728646141788
71.817651191876,0.0006330872064170952,0.0003337725180953233,0.0002993146883217719
91.20281413563318,0.00015107019032190445,3.805475898317842e-06,0.00014726471442358662
98.40412392922225,0.0006487394792975187,7.790771355416408e-05,0.0005708317657433546
108.76452620301093,0.0008018716547461648,0.0001835483370038268,0.000618323317742338
117.99524933387801,0.001190036777590085,0.0002968440370082541,0.000893192740581831
127.85299943374034,0.0012114021516642665,0.0007929155543660476,0.00041848659729821884
134.16176598481,0.0009930347327637297,0.0004903308791847552,0.0005027038535789746
136.05409758403098,0.000564552932969419,0.0002824618387091151,0.000282091094260304
138.4452414892308,3.510366846592271e-05,1.0914176020551627e-07,3.499452670571719e-05
155.5889398883552,0.007836732032101466,0.0051072590080559,0.002729473024045567
173.11823622165372,0.0005422208177735264,0.00015053629151197534,0.00039168452626155105
187.11135919808277,0.0007341191650036822,0.0004112303979975127,0.00032288876700616953
214.7145988120803,0.0009254716683033313,0.0003604440447979626,0.0005650276235053686
231.47360662146767,0.001645135789834943,0.001179340493846898,0.00046579529598804513
233.28065102551017,0.000964936690655695,0.0003468218079191237,0.0006181148827365712
241.54902968046488,7.05040768265612e-05,7.063173618185752e-06,6.344090320837544e-05
244.66842369245077,0.0008909052818036832,0.0006055322300513319,0.00028537305175235127
249.08953812345794,0.0005918800607789783,3.868008847628542e-05,0.0005531999723026929
251.0560616706349,0.003205009890512878,0.0019952030833992667,0.0012098068071136109
274.69516968688214,0.012527958160155155,0.010950665390683446,0.0015772927694717093
299.17102423704546,0.006204553718811695,3.118648856314938e-05,0.006173367230248546
306.79006773759227,0.005681857455015717,0.005289467798347494,0.0003923896566682229
321.8456692763187,0.017937902690972063,0.01419360602359269,0.0037442966673793742
339.46651450542373,0.00280645879128934,0.0016308354732341463,0.0011756233180551937
368.11659575363944,0.0017598482834744141,1.1716833512699274e-06,0.0017586766001231441
378.16248544134925,0.006405681644404613,0.003839354506223802,0.002566327138180811
390.09349549235833,0.0007219439459632948,5.7617728895637384e-05,0.0006643262170676575
414.6575736928104,0.0022200657290016366,0.0006980053356820542,0.0015220603933195824
462.13151101250287,0.004737635234453532,0.003617178640393099,0.0011204565940604323
486.7874092118589,0.002213317492180708,3.39716709534384e-05,0.0021793458212272694
502.9437078757865,0.002612505697036309,0.00010269699579097123,0.002509808701245338
504.82008588234885,0.00019872652552137976,4.575885207927656e-08,0.0001986807666693005
534.820189745029,0.0009876334254386278,1.8510641482798302e-06,0.000985782361290348
544.2949780433614,0.006979124309526283,0.0014731460187259585,0.005505978290800325
586.1015094659746,0.0021165311952544502,3.674185420486126e-05,0.002079789341049589
593.4815163090997,0.0016940438638688167,0.0005241978174453121,0.0011698460464235046
710.110580030558,0.005168812658220452,0.0004098756289987647,0.004758937029221687
720.4786976103054,0.009235252838042728,0.0041036897862477386,0.005131563051794991
731.1697947137282,0.000617866035619735,0.000160123103052837,0.000457742932566898
735.4102853684855,0.00018078670183931458,5.708714417257045e-05,0.00012369955766674415
738.3545019987932,0.00015936281673219874,7.192693065976672e-07,0.00015864354742560108
772.8640304621499,0.0021039187162053205,0.0017951487506974852,0.0003087699655078352
776.9762940587599,0.002839996096656099,0.002416437887266752,0.000423558209389347
785.8358890908638,0.004936968824116482,0.0008306646660866834,0.004106304158029799
792.5976513739014,0.0027534910925422597,0.0011610427829265796,0.0015924483096156799
806.7027237823736,0.002233436195919883,2.950567928558119e-05,0.0022039305166343015
864.1590938418228,0.014220990365330519,0.006593823337233181,0.007627167028097338
885.5530068255891,0.028745202105406,0.011742871265991042,0.01700233083941496
891.2092709187159,0.00867743637225656,0.0059692315434053955,0.0027082048288511653
908.7700975569635,0.028051448340299726,0.008444351177794443,0.019607097162505284
915.4421483379799,0.027994521389312924,0.023675884376931456,0.004318637012381466
918.5334490085593,0.028936960614527316,0.02328632625360709,0.005650634360920228
924.5722778251154,0.0008823976069288579,5.203094542649136e-05,0.0008303666615023666
931.6960233500299,0.03891404172679099,0.03083052635603644,0.008083515370754552
938.6717169639752,0.007911284507006592,0.0015984346883840361,0.006312849818622557
945.7985198500087,0.004862618159307608,0.002161952764419618,0.0027006653948879905
965.3850033053305,0.04135434059321384,0.0334053669661686,0.00794897362704524
987.7228931445075,0.024383770803186218,0.005314760688370291,0.019069010114815925
1000.1289631603415,0.0123622647070365,0.003232771992663413,0.009129492714373088
1025.0376324914037,0.009573088638825507,0.005144250648491697,0.00442883799033381
1035.4854160448738,0.009053892466056814,0.0012319584694933199,0.007821933996563495
1043.9405927472417,0.0057504715053965,0.005285300385203327,0.00046517112019317264
1048.696144388851,0.018612400387118797,0.010990401298104756,0.007621999089014042
1054.5745784685637,0.007520205505941287,0.003257184313990092,0.004263021191951196
1057.9871413575354,0.00779140337633383,0.004921300383099048,0.002870102993234782
1065.2566795739567,0.015259930805701958,0.009260463513095769,0.005999467292606189
1068.960118048811,0.014633153776916366,0.002957200497727177,0.011675953279189188
1074.6314580052035,0.05565175778243225,0.015016311436364426,0.04063544634606782
1084.2756038143987,0.0022080630150373604,0.0004215732028765503,0.00178648981216081
1090.0322676763549,0.04344184671407758,0.005622519554462687,0.03781932715961489
1090.783081614531,0.012512629263267619,0.00437940135904334,0.008133227904224279
1102.4166561153643,0.024932773825972435,0.0015059407323787372,0.023426833093593696
1104.2943464735226,0.007797507528774063,0.006155293304348977,0.001642214224425087
1107.1003945477332,0.0038861748131763622,9.37724049665226e-06,0.00387679757267971
1120.42043983482,0.09479280442409345,0.05957117067845375,0.0352216337456397
1156.6885452992633,0.0517473659792675,0.03206695612351926,0.01968040985574824
1165.3604811098792,0.03926608512196184,0.010395278574409314,0.02887080654755253
1170.4261514779234,0.0003663107078685477,7.323197007710593e-05,0.00029307873779144177
1179.166423532129,0.05124532763563695,0.02648327559094557,0.02476205204469138
1181.037086807726,0.019584282265010973,0.008236850307661484,0.011347431957349488
1189.2428703581666,0.014839357399176502,0.005527539457542392,0.009311817941634111
1189.5503553058504,0.004654005433354521,0.0008524819470377953,0.003801523486316726
1197.5026538469956,0.002511523208483176,5.619988605781019e-06,0.002505903219877395
1221.1503380739719,0.015188226383510427,0.005090227287563486,0.010097999095946941
1238.0869872364374,0.0063088410044629005,3.949098052560875e-05,0.006269350023937291
1241.5140403084613,0.0019437529693314608,7.056187170994974e-05,0.001873191097621511
1258.0283218943925,0.009824092211123259,0.0010121983727860108,0.008811893838337248
1268.5181124526382,0.013561494657749728,1.8059084367772576e-05,0.013543435573381956
1269.6654799850194,0.002867527514004508,1.1527971193765288e-06,0.0028663747168851316
1283.4281422843292,0.007500215572767135,7.582101783464111e-06,0.007492633470983671
1285.9239179708677,0.004322661552427487,0.001250150393361179,0.003072511159066308
1288.3608626419434,0.0027014847427391277,0.0002322170696485392,0.0024692676730905883
1295.9241453758448,0.016046189831504645,0.00189713018844629,0.014149059643058355
1306.0472491402543,0.004320434508396141,0.0011168936947342032,0.003203540813661938
1319.6608478689939,0.011312615277217665,0.0019447755810594086,0.009367839696158257
1322.0119667980505,0.0007582217119454901,8.438125599942648e-05,0.0006738404559460637
1323.6765546984898,0.015639871333914937,0.0005307767535208277,0.015109094580394108
1331.5149357754224,0.01917112960625266,1.4979015860902545e-08,0.0191711146272368
1332.7400422981461,0.052158341477312936,3.9201117075763776e-05,0.052119140360237175
1333.8000088441906,0.016172222157755455,0.0004155071593376982,0.015756714998417756
1339.5337789395007,0.04434868553267848,4.887769681028329e-05,0.0442998078358682
1345.7516623819538,0.007045877558752158,1.4669449507639347e-08,0.007045862889302651
1345.8201774659954,0.04015284952756643,0.002575885518614164,0.03757696400895227
1361.2599332626037,0.005598141326277641,2.8634268250045787e-05,0.005569507058027595
1373.5531489246393,0.0014879123727892843,0.000933398542503929,0.0005545138302853552
1374.3725834752868,0.015063344352214465,0.002083265603360889,0.012980078748853575
1381.7230126434767,0.004157717816139061,6.214514248274009e-05,0.00409557267365632
1398.6027121678414,0.010929985858980189,2.6606678454603356e-05,0.010903379180525585
1401.081167134481,0.007842372962845285,0.00022248429724957134,0.007619888665595714
1408.7602929845575,0.00839863925804588,5.82020887092806e-07,0.008398057237158786
1412.4398837622593,0.0018306679052720806,0.0010173676485360468,0.0008133002567360337
1413.0752073698945,0.0010980750908708783,0.0005644172167718406,0.0005336578740990377
1415.0329091764497,0.0031009661274166056,0.00012158916178512675,0.002979376965631479
1417.1358401379005,0.006270581753962269,9.368726361242662e-05,0.006176894490349843
1422.5622158314127,0.003563160279275175,0.0010946624737023759,0.0024684978055727995
1422.7605124387449,0.004890983322147538,0.00033374183928343683,0.0045572414828641
1426.9760279177312,0.004598347682265909,0.0007533614230405133,0.0038449862592253954
1435.7987181008366,0.007815476912409575,0.0017727957830203985,0.006042681129389176
1440.0300440208412,0.015530928920261394,0.00879196327985568,0.006738965640405713
1459.3259668651185,0.0004233857364137188,5.55026853464981e-07,0.00042283070956025383
1461.6525391747564,0.03140130951003701,0.002318317285789074,0.029082992224247935
1475.2302660316038,0.005327980907520811,0.0008228954833273029,0.004505085424193507
1482.119418548204,0.042389128796062436,0.004056104232579207,0.03833302456348323
1485.0474994362517,0.08696218444456352,0.00011916700278667164,0.08684301744177685
1485.6811930008812,0.020390436183155527,7.953529027564876e-05,0.020310900892879877
1485.846876274561,0.030875070513200396,0.00012078256201629942,0.0307542879511841
1486.2243636389967,0.020097001248957354,0.0012512221804351971,0.018845779068522157
1489.4980793282775,0.037876274987064515,0.0003977355434321673,0.037478539443632344
1490.5581580333533,0.012695462357994687,0.002993566924183125,0.009701895433811562
1494.0789402756805,0.02279241075595772,2.8724521051501348e-05,0.022763686234906218
1494.3016037261027,0.02592738373863592,3.7417725401913344e-07,0.025927009561381904
1494.7463728272312,0.01701749954460656,0.00016341758298738036,0.01685408196161918
1495.3595496366738,0.014971690676782971,7.304773917851287e-05,0.014898642937604458
1495.4108257518662,0.031323166514942664,0.0007582954208972358,0.03056487109404543
1495.8118847718797,0.005797780033308012,3.24246213849e-05,0.005765355411923113
1501.4770619480978,0.022879896622911827,0.0003337446222413161,0.022546152000670512
1501.8821253544986,0.002832168353900496,0.0007641573590784465,0.0020680109948220497
1502.5649059382258,0.0005068931619857227,0.00010976026596518608,0.00039713289602053665
1504.96416089376,0.0031790577608220997,0.0002735816302204808,0.002905476130601619
1505.9622195035076,0.0017567467760844946,5.880110037536785e-05,0.0016979456757091269
1507.8797494468633,0.03300124091601653,0.0014771212552570248,0.031524119660759506
1807.3088938009619,0.017121783740312722,0.013828817727944505,0.0032929660123682163
1811.840131071091,0.024368439397509885,0.017569082591728628,0.006799356805781258
3019.620371981454,0.5335842395062166,0.4532058655568962,0.0803783739493204
3024.5918418488013,0.6313284027107718,0.5081824239367609,0.12314597877401093
3029.0455742825707,0.4395811811531507,0.35580360680258943,0.0837775743505613
3031.637038339958,0.07170863843231873,0.03965018542748985,0.03205845300482889
3031.7490954514187,0.5926842208044011,0.4443217172255549,0.1483625035788462
3036.7024081968257,1.1103486956651036,0.9517900047600693,0.15855869090503436
3039.4396655569185,0.5870192705498242,0.5220415749719224,0.0649776955779018
3042.8033881270862,0.11577822118662984,0.08903627446791786,0.026741946718711978
3047.6927568412216,0.29178489074407965,0.28216847417305313,0.009616416571026517
3049.6222171072477,0.7652598374724334,0.7458915771251714,0.019368260347262016
3050.582060208663,0.7127822597861712,0.7043862859313315,0.008395973854839749
3053.305652695364,1.2274379246676084,1.2037526332926807,0.02368529137492762
3053.435147520489,0.24258504428456498,0.029235776724945227,0.21334926755961975
3056.0719947559196,0.08038332469811185,0.07603783288986893,0.004345491808242923
3057.1484395819302,0.8314321450346747,0.7875230558526023,0.04390908918207233
3059.294698153534,0.7602685049098331,0.7039398494383207,0.056328655471512494
3060.3491999628936,0.47018553696471826,0.010360722235612345,0.4598248147291059
3064.8888564701356,0.47721310124044974,0.36356580912073516,0.11364729211971458
3065.313747703034,0.6165437693445736,0.6079918952470315,0.008551874097542142
3066.6343838662783,0.2656489559956153,2.532429950932634e-05,0.265623631696106
3069.060143622252,0.012079679128426932,0.003654063687087468,0.008425615441339464
3073.284034862609,0.38621478835153356,0.37580617723756427,0.010408611113969278
3078.1335612732446,0.5062535405375627,0.0003180059366688828,0.5059355346008938
3078.226733056637,0.07445249302248783,0.05986344795912901,0.01458904506335882
3080.976203190401,0.6696583180945157,0.40540491496548303,0.26425340312903267
3090.716231106363,0.004544820689736889,0.0031258338448061328,0.0014189868449307563
3093.15868031411,0.6044371472660128,0.26691736708721,0.3375197801788029
3093.7813463481043,0.366276453765308,0.2659675872304609,0.10030886653484711
3097.7889327760627,0.08674636779383844,0.0017658424953238493,0.08498052529851459
3099.8712460094926,0.08075682744588271,0.05279496139537687,0.02796186605050584
3103.380982617278,0.10863102963957243,0.000635614945774845,0.10799541469379759
3113.2007678812406,0.10378276705860666,0.007988394846250987,0.09579437221235568
3113.6371813505875,0.11771010105913195,2.0670350274371117e-05,0.11768943070885758
3113.8621943530447,0.0036539626246107184,0.0003861381399679596,0.003267824484642759
3121.310048237339,0.09536613830442393,0.00022435732931514322,0.0951417809751088
3121.56553606355,0.41512310787187756,0.07335123097984625,0.3417718768920313
3122.167014316246,0.4022070333470388,0.06808876413561238,0.3341182692114264
3124.1193381889416,0.2112241301472533,0.041608753074911096,0.1696153770723422
3126.729121499521,0.4400824340594109,0.1347317916451879,0.305350642414223
3128.1824320823844,0.3069638286767744,0.044085104984742295,0.26287872369203213
3137.7004652454707,0.20979834755841736,0.050611278458668564,0.1591870690997488
3151.5892902926867,0.20283382710796605,0.030129999203605054,0.172703827904361
