frequency_cm1,total_intensity,isotropic_intensity,anisotropic_intensity
0.6722473860065235,0.0,0.0,0.0
0.5819813377415168,0.0,0.0,0.0
8.414622208929227e-06,0.0,0.0,0.0
2.2301940958773053e-05,0.0,0.0,0.0
2.3216475731920196e-05,0.0,0.0,0.0
0.7985123887921701,0.0,0.0,0.0
3.9285775246289263,0.0,0.0,0.0
6.229114799289703,0.001026495795192136,5.077686818217705e-06,0.0010214181083739182
10.197271363640153,0.0017510469029359663,2.591147544126791e-05,0.0017251354274946983
13.7992519260209,0.0022079301763048673,2.721324065737624e-05,0.002180716935647491
22.200979329496754,0.0020898782570869523,1.951782432891989e-05,0.0020703604327580324
29.934554730628303,0.0012592362859955972,9.958643799873899e-06,0.0012492776421957233
40.43288338026514,0.0022848608958849553,3.289143361235927e-05,0.002251969462272596
40.77951503730563,0.0007074191035779145,9.192595271909855e-06,0.0006982265083060046
45.857821651800144,0.0008231400978685292,1.363654343260741e-05,0.0008095035544359218
52.47246877822059,0.0035417141847946224,1.9167403361183834e-05,0.0035225467814334385
56.00307320850303,0.0037420434769900182,7.172415180141034e-06,0.0037348710618098774
62.05360267784784,0.00034856205246436896,3.3589508472155765e-05,0.0003149725439922132
64.00925431277105,0.0014053509600030073,4.3308992142095726e-05,0.0013620419678609117
65.04225509611962,0.0017121739654540967,2.8972368601242942e-05,0.0016832015968528537
68.60149561985283,0.0003086693794907335,1.1426258441738592e-09,0.00030866823686488936
76.82844180744512,0.0007565541482247585,0.00016546930149509043,0.0005910848467296681
92.18295523781997,0.0017737880067198338,0.0009077274018427964,0.0008660606048770373
101.12246388433287,0.0011006650672817,1.1806492820669177e-05,0.0010888585744610309
114.40675563300036,0.000245158112993927,0.00019804421214243432,4.7113900851492694e-05
122.34791374679081,0.0006673232011867873,0.0005509560796067754,0.00011636712158001195
125.42467557437539,0.0009659076568533046,0.0002100965827315305,0.000755811074121774
135.45743352726555,0.0008165360790660292,8.741409437768769e-06,0.0008077946696282604
142.22357134035616,0.0014009375439886676,0.0009662018702262512,0.00043473567376241636
148.74203980265943,0.003656473404669292,0.002133753670848488,0.001522719733820804
152.06944409319038,0.001332928567969866,0.0009624619766113951,0.00037046659135847083
156.62728257409447,0.0004322593582247381,8.746217775114313e-05,0.000344797180473595
168.85657791800986,0.000811314355565598,0.00037971953484644875,0.0004315948207191492
177.65689166579617,0.0011277901101716958,0.0007891381096363706,0.0003386520005353252
196.70243603633728,0.0006970291413000317,0.00012949372613678392,0.0005675354151632478
222.20288922003496,0.0016117892627321845,0.0011050944535230492,0.0005066948092091353
223.67525345548364,0.0017328423018008626,0.0012543148946093606,0.00047852740719150195
231.01321618801285,0.0030078908409197913,0.002309007568740687,0.0006988832721791044
237.58527445419168,0.0021281661508450187,0.0018589307642111399,0.0002692353866338787
242.46068965707326,0.002286350852752535,0.002140151324980891,0.00014619952777164406
248.15573835732033,0.003896092491175525,0.003218602468672412,0.0006774900225031129
260.6387124148489,0.000748952623397288,0.00013502770060228722,0.0006139249227950007
274.4127155929745,0.0033965861011996568,0.0007299647613659843,0.0026666213398336726
283.51531681043076,0.0017873336611690693,0.0012327811547526517,0.0005545525064164175
301.9538427959952,0.008261183215456953,0.005968912244100262,0.002292270971356691
307.9529749733891,0.0043039983615723,0.003954206763192226,0.00034979159838007456
340.90067494332123,0.00453608438491191,0.0035904507469098467,0.0009456336380020633
358.8154484335372,0.007816906624581023,0.006830457369895702,0.0009864492546853216
375.47916768453507,0.004257045880022797,0.0018028641288311172,0.00245418175119168
382.7938836431337,0.007244296230993728,0.003832238117974889,0.00341205811301884
398.69602680969706,0.010951212106094113,0.00672927945973269,0.004221932646361423
438.87313302125824,0.0004193350618255784,4.611804301784243e-06,0.00041472325752379415
455.6465162291522,0.002801059815383357,0.0019781521526753038,0.000822907662708053
480.3801432531494,0.0023291804458454623,0.0009362321190548577,0.0013929483267906043
483.90162734627455,0.002681563568627296,3.7810759108757745e-05,0.0026437528095185382
500.79588243847974,0.0016023377358635694,4.988749785646831e-06,0.0015973489860779226
503.7214136192695,0.004532341380987186,0.0004254726178348757,0.00410686876315231
531.5477091001203,0.006809897914347565,0.0012724083935489545,0.0055374895207986104
557.5958616194667,0.00405350084190332,0.00033675139185701606,0.003716749450046304
592.1742301441056,0.0021901415939464984,0.0002473900952409799,0.0019427514987055184
623.9285788534942,0.006076798448454964,0.00015734503445543214,0.005919453413999532
710.5935346165116,0.003275042103285252,0.00071945843200965,0.002555583671275602
731.0774203183856,0.0009560353033813622,0.00037040381456614327,0.0005856314888152189
731.4848148973309,0.00045234005345986,1.3048587746617591e-05,0.0004392914657132424
732.0709544727389,0.0011382549345115864,0.0007115648318412155,0.0004266901026703708
740.1693946042876,0.002346480332638891,0.002068116772604177,0.00027836356003471425
745.2493610240734,0.014960095216603846,0.013643495234433112,0.0013165999821707327
770.9256807789957,0.010653200955370305,0.009436307511150297,0.0012168934442200073
773.082379955544,0.0012132459112678786,2.2425668413647087e-05,0.0011908202428542315
777.1911333246012,0.004587281037058473,0.0034522479099254994,0.0011350331271329733
785.5726752713445,0.005253564016254304,0.0008723393632710117,0.004381224652983292
786.6157613705692,0.005148925034662242,0.0010941987521353026,0.00405472628252694
833.5428147729629,0.0025117866964963417,0.0006481591580153766,0.0018636275384809652
860.4240305797023,0.008991494371746622,0.00045782618446441796,0.008533668187282205
862.4640242904255,0.012733515361350633,0.004402766730745659,0.008330748630604973
883.6991101004493,0.04436471086932057,0.0418260269330552,0.0025386839362653694
890.9742169432811,0.04096666947913557,0.01797369396309363,0.022992975516041937
912.7677085637583,0.047357876218730624,0.026227831577165954,0.02113004464156467
913.7027492696458,0.03959432617459009,0.03051676551163176,0.009077560662958334
919.5754168565286,0.009449838463801803,0.009005907706934076,0.00044393075686772636
922.2387269857484,0.005003823685031988,0.00015795662956898224,0.004845867055463006
935.3851620426707,0.02987048788621948,0.02583222100725293,0.00403826687896655
951.7553643504224,0.00542562444695056,0.0027739831564249076,0.0026516412905256523
954.2426198763543,0.002586973605180531,0.000645760596846857,0.001941213008333674
985.9101398105289,0.011500418134984277,1.1497617909390201e-05,0.011488920517074888
1002.0245377632077,0.007386275559249432,1.1234664647308991e-05,0.007375040894602123
1010.3011918568817,0.008923987142235397,7.161914350252833e-05,0.008852367998732869
1018.4639497176172,0.002516708105338026,1.8481205741252207e-06,0.0025148599847639006
1032.8824283287486,0.003483528873575049,0.0004859837070115316,0.0029975451665635176
1045.0056625561213,0.012237954763447818,1.7607816552138845e-05,0.012220346946895678
1048.0569700886763,0.019624241226511848,0.01289518477857868,0.0067290564479331695
1049.5640132043477,0.018995201904835165,0.012051449228407089,0.006943752676428075
1053.9538693139875,0.012185208573844124,0.006431861269512243,0.0057533473043318815
1054.6179059021222,0.006403246988892981,0.0006674714013287286,0.005735775587564253
1062.9867766282246,0.014872104454985147,0.007364172028448523,0.007507932426536625
1064.6004119372599,0.011586704251956159,0.002136254600033659,0.0094504496519225
1072.938306739001,0.00808884874548416,0.006251697576899838,0.0018371511685843205
1086.5670597726123,0.016198042864333212,0.009861170402753555,0.0063368724615796585
1089.211909410339,0.028090657145239596,0.0048833056091008315,0.023207351536138763
1089.5562260984723,0.057777092355548024,0.00017469770160439735,0.05760239465394363
1090.147087951867,0.029962097748162372,0.0028728600722311435,0.02708923767593123
1098.5231608178162,0.008589622071811383,0.0006851806817939409,0.007904441390017442
1105.0983288449183,0.006811438351976576,0.004015027492766456,0.0027964108592101198
1105.4379869889985,0.007777168701087245,0.005921545240567462,0.0018556234605197832
1116.0233949792005,0.020042036909330117,0.011410939701990567,0.00863109720733955
1125.5505454607521,0.18337028095333746,0.11320695661257615,0.07016332434076131
1142.6004201677445,0.008630138654116517,0.00011926748472471061,0.008510871169391806
1165.116093356719,0.027082207620251045,0.003053137344744762,0.024029070275506284
1165.777940141113,0.04262277091413594,0.014708386036607997,0.02791438487752794
1177.8130571016752,0.02061166057781272,0.004670715419672479,0.015940945158140242
1180.3117993213432,0.01618169198197326,0.004285751714839689,0.011895940267133571
1189.3336795333719,0.011615336065921458,0.002032878368070932,0.009582457697850526
1190.5446528833977,0.016190438096556535,0.008636078428207612,0.007554359668348923
1197.8479990243275,0.0072994133725433055,0.0010534953480450162,0.006245918024498289
1222.8427957575252,0.010072714107238347,0.0009540875487002578,0.009118626558538089
1237.7716602539506,0.00643926541666397,2.556240161506255e-06,0.006436709176502464
1239.402877060756,0.0030068056575845744,0.00015021738756487767,0.002856588270019697
1242.2112672913738,0.0035718022781637587,0.00023488850136435543,0.0033369137767994034
1255.9814529285325,0.01764346485147665,0.0023605055229798107,0.01528295932849684
1260.0040862208855,0.0026317424044221796,5.211287378223325e-05,0.0025796295306399464
1271.065758543561,0.005717613838967209,0.0015536783551008632,0.004163935483866346
1283.56035090851,0.0041044932716760045,6.341936478866963e-06,0.004098151335197138
1285.4649616599618,0.0031961197682965703,0.00020638682608643754,0.002989732942210133
1286.0643177091238,0.007135055254196689,0.00043635271085268703,0.0066987025433440026
1295.1217960619542,0.001908371642415294,0.00011361513536754722,0.0017947565070477467
1300.315983774406,0.01799656749379379,0.004239765357421242,0.013756802136372547
1310.119505387323,0.011920009842900814,0.0004943443412881508,0.011425665501612663
1317.57281158766,0.0026261182255725196,6.218247324387618e-08,0.0026260560430992758
1321.0466857209376,0.00931596380185701,0.0018121646892738127,0.007503799112583197
1325.3324190717228,0.04313490122700496,0.004285113298723647,0.03884978792828132
1328.8384234144614,0.02936964142289812,0.002356175019958488,0.027013466402939633
1332.1578985341446,0.014142894915671552,9.44429470047786e-06,0.014133450620971074
1332.484415893647,0.016579456490772224,0.00010583953953128835,0.016473616951240937
1335.2851190819022,0.05104759180964952,0.0018692617785648494,0.04917833003108467
1338.3215334213517,0.0034802371083372577,3.627224757690081e-05,0.003443964860760357
1342.0616947892945,0.017595518443460693,0.00037789985984910675,0.017217618583611587
1346.455239287409,0.028429177156800517,0.0016505092139529735,0.026778667942847542
1347.327864294906,0.028487037040252728,6.20010453401212e-06,0.028480836935718717
1348.1471012271538,0.02531276569032477,1.06618719487662e-05,0.025302103818376005
1351.7017181260294,0.018075480658393,0.0017887173550236032,0.0162867633033694
1370.6435087014945,0.0012295300120731896,0.00010599959512272255,0.001123530416950467
1381.1869420490352,0.0035460672960777916,0.00017994765498452602,0.0033661196410932656
1382.3016957343962,0.006850057855636064,0.001335556875749977,0.0055145009798860875
1399.880800328507,0.00600308585601019,4.049950896507883e-05,0.005962586347045111
1400.4313096461842,0.007565991502294499,0.00025964451547306236,0.007306346986821436
1401.4911129523261,0.004447847463530751,9.67927603250781e-05,0.0043510547032056725
1413.231358421109,0.0013165703814302632,0.0005552979084769679,0.0007612724729532955
1413.2697033339584,0.0013142698909300171,0.00025766692453042193,0.0010566029663995951
1414.631603382194,0.0036384149614934673,0.0005211688004582468,0.0031172461610352205
1415.0871533250943,0.002074271860227975,0.0004217581797987887,0.0016525136804291865
1419.2293534288988,0.0033454851157111434,0.0009768309625301334,0.00236865415318101
1421.2296535113605,0.0034069040805297874,3.808360250546845e-08,0.003406865996927282
1423.6370793506937,0.004465377175867669,0.0012884618528603005,0.0031769153230073685
1423.9927639844282,0.007147496178543471,0.00011653948459580445,0.007030956693947667
1426.7002745035873,0.006205674100791813,0.0004907873305959378,0.005714886770195875
1433.0638501457481,0.005142258400459555,0.002040073642016556,0.0031021847584429985
1461.4910642071002,0.012000921321171087,0.0002938382065117036,0.011707083114659384
1480.5257033987464,0.02619277405810262,0.00416222507314783,0.02203054898495479
1481.6549925621523,0.08857470444474531,0.0009975615974870044,0.08757714284725832
1481.984606329427,0.013598178791729892,0.007485616429668485,0.006112562362061408
1482.6397921149116,0.001661564872909711,0.0006957818978340801,0.000965782975075631
1485.0815548940805,0.047585825984037766,2.6411246674809683e-05,0.04755941473736296
1485.5919702963563,0.02311176806885533,3.2837430360282476e-05,0.023078930638495046
1487.714517395447,0.018908245205936713,0.00020837839153496366,0.01869986681440175
1488.8186746523556,0.038169553367463284,0.00039598546387753134,0.037773567903585756
1489.7047096615286,0.050584607858156355,0.004188405859018852,0.04639620199913751
1491.4903120108147,0.06037307178771391,0.006492572895138734,0.05388049889257517
1492.4838080211628,0.020133465070244362,0.0005659371234609858,0.019567527946783375
1494.256868214525,0.026298039795483286,2.2393776607214712e-07,0.026297815857717212
1494.5846460016055,0.026832691337114935,3.835849832352071e-06,0.026828855487282584
1494.9369775378082,0.013702281458060373,0.0007957233729825619,0.012906558085077811
1495.0524623914312,0.026263542741751873,0.00010078945073159074,0.02616275329102028
1495.8917802839178,0.01249313102370174,0.00014720671343604135,0.012345924310265698
1495.9505393785496,0.021119413418555187,3.8614891851864176e-05,0.021080798526703325
1498.5376573539165,0.0068939563730286,0.0003523133147884714,0.006541643058240129
1502.2132239885636,0.007218396296602923,4.512993030044018e-05,0.0071732663663024825
1502.9735969639396,0.02369733793698848,0.0001255812703232257,0.023571756666665254
1504.839440380517,0.0022822226430285327,2.1340637310457187e-05,0.0022608820057180754
1505.0214087569354,0.0009619502113023275,0.00044972735142231597,0.0005122228598800115
1505.0673045307608,0.0035060401664744854,0.00018041098610548242,0.0033256291803690032
1519.4567362210844,0.015021521786934033,0.0011292857686600792,0.013892236018273954
1810.8684777394426,0.018225361982065896,0.013817845994750918,0.0044075159873149805
1830.7143478447183,0.08629490328462534,0.033666020618020986,0.05262888266660436
3020.6500191327013,0.4081364912926547,0.32364012223161487,0.08449636906103986
3022.9404174207575,0.5304919998213165,0.42358875314773875,0.10690324667357771
3023.6628733526045,0.5665105353068629,0.5611136961914324,0.005396839115430581
3027.498091220828,0.8611100009959061,0.8392414095548448,0.021868591441061194
3030.9602981208027,0.19853952838448058,0.08990589506634064,0.10863363331813992
3032.924136894484,0.9613478603928599,0.8474354322055141,0.11391242818734584
3033.1232720050793,0.0986387312228061,0.019205413225537305,0.0794333179972688
3035.44543761852,1.2945883543522718,1.185881585556342,0.10870676879592982
3035.5303895663237,0.03745168211697024,0.009293039193999398,0.028158642922970843
3042.2596064389245,0.4391025087580343,0.399643202449004,0.03945930630903033
3043.118027173846,0.2641624644667684,0.23289359909223337,0.03126886537453499
3048.5622787758057,0.4971586883051329,0.07711150838279172,0.42004717992234114
3049.8345254060937,0.23652242745689128,0.0011030935666251364,0.23541933389026615
3050.472644137391,0.8097328224322685,0.7981656498802043,0.011567172552064148
3051.129240616004,0.8223380304290033,0.8096090952687156,0.012728935160287724
3054.1181211352705,0.09392219315833403,0.06923179965415435,0.024690393504179668
3054.848398836115,0.022466100692942796,8.223327244306822e-05,0.022383867420499727
3057.3340267881754,0.9464578977402859,0.9304196911047787,0.016038206635507164
3058.366170752674,0.9302334108291306,0.8772521075638573,0.05298130326527332
3058.8990354901575,0.7343816304000885,0.24946238310745378,0.4849192472926348
3060.4382138192736,0.9813824060918,0.8430000506321251,0.1383823554596749
3060.5018985461325,0.22356343040127935,0.1664007535758953,0.057162676825384076
3061.3718945784703,0.19931503615330845,0.05383348371306861,0.14548155244023983
3062.7590830968034,0.6544891519951637,0.41831646358618363,0.23617268840897998
3066.52611137208,0.009708424137048567,0.0064592417391398345,0.0032491823979087326
3075.452435287714,0.09145372948811448,0.06780251459042556,0.023651214897688906
3080.002164308933,0.052804104310144324,0.03300925867812603,0.019794845632018297
3080.217195562207,0.10583544527766338,0.00825557415197063,0.09757987112569275
3089.93782772217,0.5216857418430347,0.35577142959017094,0.1659143122528638
3091.9090455580513,0.32629677880285224,0.3001490782000348,0.026147700602817455
3093.405757239844,0.30836953379134263,0.15001082040949143,0.1583587133818512
3095.119567907411,0.1665812732327622,0.04155153289800372,0.12502974033475847
3095.264658741262,0.5401456512517064,0.25468770434781024,0.28545794690389614
3095.8564800343875,0.45299111464681885,0.3277783289226899,0.125212785724129
3099.7741086445108,0.12125214835775136,0.03812867178074827,0.08312347657700309
3100.493795769613,0.11510023946090873,0.0006372454056059567,0.11446299405530277
3111.7700355185507,0.23651414114194858,0.07196175527631243,0.16455238586563614
3113.169910120601,0.00204361919344508,4.29542990694267e-06,0.0020393237635381372
3113.634608245481,0.11361980704648739,8.490485952608679e-05,0.1135349021869613
3114.3632473490684,0.1269227464874852,0.00012355226202090375,0.1267991942254643
3121.961381404995,0.40075801536792766,0.06351196546850542,0.33724604989942225
3122.7688885031152,0.29358371985509335,0.050468504367863556,0.2431152154872298
3123.2253215683286,0.2554313011338339,0.01568729033747399,0.2397440107963599
3125.2973886344716,0.16038555673519586,0.02945530775634504,0.13093024897885083
3128.5099892114995,0.34624066628010625,0.05788885342585245,0.2883518128542538
3129.2958342523134,0.3248723977979965,0.0562062736572361,0.2686661241407604
3145.3089719074637,0.17376020377541398,0.051227177398563334,0.12253302637685065
3157.2645636812267,0.20761077522833235,0.043331850431581526,0.16427892479675082
