frequency_cm1,total_intensity,isotropic_intensity,anisotropic_intensity
0.8471822268821603,0.0,0.0,0.0
1.133526479608723e-05,0.0,0.0,0.0
1.7888774719021704e-05,0.0,0.0,0.0
2.2919989023768423e-05,0.0,0.0,0.0
0.7266818673484884,0.0,0.0,0.0
0.9632025884467396,0.0,0.0,0.0
12.684361416623716,0.013141429618181849,7.97483725973724e-05,0.013061681245584477
20.17289945281245,0.012274836974327725,0.00015987172041556587,0.012114965253912159
22.22085718256805,0.003089405543304315,5.804492676356003e-06,0.003083601050627959
34.9628209412591,0.0012269907833984018,4.383000741649989e-05,0.001183160775981902
40.586953170921824,0.004446969097122623,5.686511697927321e-06,0.004441282585424695
43.94463126073856,0.007199252500183272,1.1506562468758788e-06,0.007198101843936397
53.88473122132922,0.0023929356900877553,2.6250970402216036e-07,0.0023926731803837332
60.95401191697544,0.0007091845780101544,0.0003858653280299799,0.00032331924998017444
84.67149895974697,0.0008718823097862612,2.9778664546967424e-05,0.0008421036452392938
102.4252477086089,0.0007345685300418384,3.55512360823954e-05,0.0006990172939594431
112.03941435407033,0.0014695234875410222,7.656244537373417e-05,0.0013929610421672882
122.11669394213934,0.0020446776977501285,5.804964382570417e-08,0.0020446196481063027
138.2309210646595,0.00186343777841273,0.00072752330556323,0.0011359144728495
150.63718173780714,0.0012441455066633498,0.000701565095320981,0.0005425804113423689
158.7317850590734,0.000134944325782787,8.501230027410463e-05,4.993202550868236e-05
165.95688942037344,0.004988892814940951,0.0029820326439612224,0.0020068601709797283
171.98981228098864,0.00026962321678105646,3.5066112597587767e-07,0.0002692725556550806
197.21009017218137,0.01346034629072925,0.007088916780860646,0.006371429509868604
208.58958546700774,0.0049308142668527686,0.0004678529285042524,0.004462961338348516
238.40581592076322,0.01079834170742295,0.002522131665231487,0.008276210042191463
246.03516159579067,7.561591341126214e-05,9.546137033465333e-06,6.60697763777968e-05
293.34639336445736,0.007524707039448517,0.0017406805522136445,0.0057840264872348725
318.6703589888238,0.006472692484697901,0.004226892761779679,0.0022457997229182224
346.65675192192305,0.027381218810031097,0.023531888045419853,0.0038493307646112434
364.20331261377055,0.011327516060883648,0.0002749241331824286,0.01105259192770122
367.85852252629667,0.004392704925491544,9.559352326840515e-05,0.0042971114022231395
408.468582445257,0.002439039556470677,7.5934226964849104e-06,0.002431446133774192
442.31689355389864,0.0005078078348653342,8.225907680925127e-06,0.000499581927184409
467.0658010811431,0.0022658041928234384,0.0009769155128763354,0.0012888886799471031
477.3421955704015,0.0020202635748487723,0.0010212367165322522,0.0009990268583165202
504.88411530561586,0.001954980798378022,0.00037030781835420764,0.0015846729800238143
531.7831980287732,0.004231407552688898,0.00047461247309283744,0.00375679507959606
565.9786476499747,0.0033358161480356646,0.0014292815700170576,0.001906534578018607
624.9708822742509,0.003120490587838325,0.0019596614007696806,0.0011608291870686446
669.0025427857861,0.009487379757578473,0.006027369829105725,0.003460009928472748
693.2672780656022,0.0013097098735210398,0.0006254967069095449,0.000684213166611495
729.7438426667626,0.0002022955646162347,4.9600371483222573e-05,0.00015269519313301213
737.8954021733034,0.0001870832673310267,6.624315154277526e-05,0.00012084011578825144
752.7935968555402,0.0036024998031927214,0.0004722566741557989,0.0031302431290369226
761.5190172237294,0.0035990758647550776,3.329043107750765e-06,0.003595746821647327
763.5534688687269,0.0011978340388057696,1.7435990542154883e-05,0.0011803980482636147
793.3623584888907,0.006903657173623368,0.0021145178286738793,0.004789139344949489
794.8704390550638,0.005858190365798939,0.0015262180366856228,0.004331972329113316
810.042086456776,0.007078106490823888,0.006010491720953141,0.0010676147698707474
817.3740884624006,0.06919917027151486,0.06297628520475704,0.006222885066757813
879.3630641760226,0.0007881125686398126,0.0003919207843405968,0.0003961917842992159
907.6689933007009,0.02267286052466959,0.008705168436012585,0.013967692088657004
913.8934659393839,0.02333809724383664,0.01320412092455203,0.01013397631928461
954.2624116629802,0.0235632149529788,1.2309672240202204e-06,0.023561983985754778
959.1714707914127,0.0011685118059525663,6.634577330875251e-05,0.0011021660326438138
980.9417277414049,0.0018177657883590918,0.00048664205568055855,0.0013311237326785333
984.4150468372645,0.00023590102296674063,1.886179841113141e-06,0.00023401484312562747
993.4698343250806,0.002851009059577949,0.0020164340268547794,0.0008345750327231699
1020.9137623438384,0.0012486813613856698,1.904074661510323e-05,0.0012296406147705666
1032.6750223821662,0.19278922360745232,0.16267226450195765,0.030116959105494674
1035.040010139566,0.00038929904432598485,0.00010515412275949729,0.0002841449215664876
1038.758541324531,0.02114764014906977,0.018379158807862842,0.002768481341206926
1064.1732182520363,0.010732465071075862,9.026171601011258e-07,0.010731562453915761
1071.2156558127451,0.0334146125609061,0.00015232474151556083,0.03326228781939054
1089.3150251286859,0.004968222113476865,0.0030450016619714497,0.0019232204515054144
1091.4760151817413,0.03489945196397665,0.00042256476105258613,0.034476887202924064
1101.6545430362296,0.04131614035223677,0.0128314658355121,0.02848467451672467
1109.0208821148183,0.008082389726808687,1.9358123094304342e-05,0.008063031603714382
1138.2221379247433,0.008985488300246805,0.0020880491079827645,0.00689743919226404
1154.7943177133363,0.1641536966958563,0.10967307877732742,0.054480617918528894
1179.8100727268807,0.010190487270294708,0.0016737756567407336,0.008516711613553975
1208.640445080357,0.03061066335748911,0.01749123377114735,0.013119429586341762
1224.5827095338202,0.03286709478961537,0.019626887573152712,0.01324020721646266
1242.2026464785813,0.0015614750542471162,0.0012176187199945995,0.0003438563342525168
1259.7921627385606,0.004287575656637476,0.0012956388559424374,0.0029919368006950386
1264.3015288048232,0.013373906856215777,0.008401644668900901,0.004972262187314874
1288.1460545648247,0.000545786160753897,0.0001457219385288112,0.0004000642222250858
1300.877790650577,0.02485697653034784,0.015627231515785298,0.009229745014562543
1317.729011916826,0.09619112883956421,0.06368161770922114,0.03250951113034307
1328.40110446646,0.07462178656407117,0.0005587294477608117,0.07406305711631037
1331.1559918811367,0.02531856002436379,0.0019614125960568767,0.023357147428306912
1336.170102698206,0.0007818454223583613,1.780247918916872e-07,0.0007816673975664695
1338.2572236861233,0.002200391581307258,2.7428678646551433e-05,0.0021729629026607062
1343.0642577737992,0.004389025599452448,0.00012072105205535301,0.004268304547397095
1343.9924468968482,0.00860275001410711,0.0019045382835481122,0.006698211730558998
1381.9056965058787,0.0035859841921532408,5.32988378615086e-05,0.003532685354291732
1410.0328512015722,0.00029738514242728167,5.323435795206218e-07,0.00029685279884776106
1413.4483480472043,0.001753577318698215,0.0010307230330436716,0.0007228542856545433
1421.4268602139393,0.009247771648457252,0.0002513782603932543,0.008996393388063998
1428.5956572560412,0.015987151074803578,0.00728350355069056,0.008703647524113019
1434.5430759448761,0.07983664970040091,0.0057361187128255825,0.07410053098757532
1443.13904069759,0.6069865357164308,0.42092710537118694,0.1860594303452439
1473.2931595577722,0.038937014015558345,0.0023697336148526668,0.03656728040070568
1480.7606728317726,0.007603623654120939,0.0019817353152013677,0.0056218883389195715
1481.9010470615856,0.025318747192559485,0.001235541878072879,0.024083205314486607
1485.0981720040872,0.10949332064575583,0.006746925997083001,0.10274639464867283
1489.1384964110646,0.001520747967338982,0.0007350923826103588,0.0007856555847286232
1493.933588382677,0.02686471454398228,1.5644153434017452e-08,0.026864698899828846
1494.8186417700347,0.030843449034982717,0.001631165307501262,0.029212283727481456
1499.9649116457447,0.001466038044329597,0.0006706037537745527,0.0007954342905550442
1505.3104635326722,0.004185643199309754,2.378203689386991e-07,0.004185405378940815
1510.1783625941107,0.003141618326966523,6.068284941004561e-05,0.0030809354775564774
1514.9026981107559,0.013519453062197578,0.006484143415203306,0.007035309646994271
1647.6210887335692,0.14290131058080677,0.0010380176855404324,0.14186329289526634
1651.7683177099686,0.15719301013390244,0.009815556133970475,0.14737745399993196
1681.1071808450336,0.03483495128638458,5.336755051187495e-05,0.0347815837358727
1714.4297286883311,0.05822822208554668,0.0028039912088684395,0.055424230876678235
1837.5531599562626,0.1426086819476371,0.07368449950908777,0.06892418243854931
3024.4379513799354,0.4843747569005703,0.457752785456279,0.026621971444291292
3027.5858444172245,0.47068015409275166,0.46724479373189054,0.0034353603608611428
3029.0219832276994,1.0207783335608913,0.9877665079803315,0.03301182558055985
3037.7916904740678,0.1992760608619472,0.1791652594494142,0.020110801412533026
3042.534798101756,0.3547592774249317,0.3337073483142356,0.02105192911069608
3047.4780666237566,0.8089059630396078,0.00017554514702537404,0.8087304178925825
3050.2604526790537,0.8909586541183919,0.8833520457707625,0.007606608347629434
3054.951662749751,0.04344193582069116,7.594955160165978e-05,0.0433659862690895
3064.8022878601855,0.19421736108872775,0.007519218302679567,0.18669814278604818
3067.6306844005894,0.9959525280004583,0.9382520647580178,0.05770046324244053
3076.4785054080685,0.08979991486528105,0.05355808005099324,0.036241834814287804
3078.151291428862,0.03231988867780923,2.38666312954686e-05,0.03229602204651376
3088.8175572839627,0.0515735613697377,5.911084592354997e-05,0.051514450523814155
3106.4754014712935,0.194617550032298,0.002722486798274653,0.19189506323402333
3113.3400216228424,0.13324976155393575,2.2368135801635587e-06,0.1332475247403556
3121.4501438397815,0.4085105664988704,0.06251173769319437,0.34599882880567606
3132.534079673371,0.010723893642008,0.0015274569753162626,0.009196436666691739
3252.641430579193,0.18075333963190543,0.11433613750514703,0.0664172021267584
3258.0571365723104,0.17518346614233532,0.11409831904133007,0.061085147101005245
3270.619137714009,0.16045711534800483,0.11695695883101657,0.04350015651698825
