frequency_cm1,total_intensity,isotropic_intensity,anisotropic_intensity
1.5898200132907359,0.0,0.0,0.0
0.9052860019328384,0.0,0.0,0.0
5.899328059289826e-06,0.0,0.0,0.0
2.591031725609441e-06,0.0,0.0,0.0
2.6002661930433987e-05,0.0,0.0,0.0
1.3193436361386168,0.0,0.0,0.0
17.510933778742476,0.020573219362947096,0.0007061947902260321,0.019867024572721066
24.973582525197553,0.005088424882863503,9.797421306652964e-08,0.005088326908650437
50.31308959210373,0.016987504388132985,0.0002503961105440537,0.01673710827758893
61.764754469194855,0.02477682985315347,5.804187227242803e-09,0.024776824048966244
72.2881620684702,0.013157568165399609,0.00014623173938359824,0.01301133642601601
130.39794332410654,0.02052906310661323,0.001126405207143931,0.019402657899469298
137.49501379521433,0.0016709820796404148,2.143704709350082e-07,0.0016707677091694797
153.96485348126893,0.005635780380994291,1.0867670376005895e-08,0.005635769513323915
186.4044610423274,0.005044961140188542,0.00033896414745494184,0.0047059969927336
275.4347474964886,0.004699663576700292,8.106741652904612e-08,0.0046995825092837635
296.99080707863897,0.007836029172096245,1.4512507894920607e-07,0.007835884047017296
344.01204913781714,0.0019263384215729943,1.425384597481752e-07,0.001926195883113246
367.61241110888335,0.04581541013914451,0.04010741729652096,0.00570799284262355
387.664155519406,0.012564318441928301,0.010447732093425083,0.002116586348503217
416.08162504364276,0.0004415293539070766,9.619420521944916e-09,0.00044151973448655466
417.2261641799058,0.0015253084997018222,0.00011334448823169167,0.0014119640114701305
431.47290721601115,0.003062292669229168,7.734230540764844e-09,0.0030622849349986273
444.88762017542945,0.0029435123149084215,0.0005777276739500386,0.002365784640958383
477.6124680539313,0.0006681553942210707,5.2760993078236416e-08,0.0006681026332279926
524.5572768300125,0.00015967465988485827,0.00012854712521654364,3.1127534668314636e-05
572.5545762307096,0.006440237283973041,1.981452582088188e-08,0.0064402174694472205
633.1592693224968,0.027862059934506297,0.00014730542363180707,0.02771475451087449
633.3499022474298,0.01257711937959707,9.250534370496112e-08,0.012577026874253366
647.3671960200157,0.0023081140283179756,3.2969471648165825e-11,0.002308113995348504
652.2298525827131,0.029047998189301413,0.027250964841697242,0.001797033347604172
715.9386822301371,0.00039184876884631775,1.552095692629589e-07,0.0003916935592770548
716.8163872872256,0.0005561980964053937,9.8069415620836e-05,0.0004581286807845577
782.5052054436388,0.0024060121096035397,0.0007484277109912567,0.001657584398612283
782.6380826393834,0.005868364645899109,4.775719540751918e-06,0.0058635889263583575
860.4913090186637,0.0024697452543525128,2.7238508225351476e-07,0.0024694728692702594
874.7872212887544,0.05262746105705551,0.03402275125771552,0.018604709799339987
877.5487925383101,0.0035963085185174025,1.0208548588650799e-05,0.0035860999699287516
877.5767448068904,0.007430697015356332,2.755334519635921e-05,0.007403143670159973
890.6011451095553,0.011063660423092918,4.810376474577231e-05,0.011015556658347145
940.8028421528577,0.0050772687333641145,9.268444482666698e-09,0.005077259464919632
955.5584588107116,0.004115246600946249,0.00202699753077644,0.002088249070169809
965.645768739372,0.0008582212136289093,2.3215591127073208e-07,0.0008579890577176386
1013.1426865898524,0.04039572255814175,0.03887559168285416,0.0015201308752875891
1016.0176414610568,0.001310104132108503,2.2763464180634565e-06,0.0013078277856904395
1016.3546275798025,0.020967782366283716,0.019632821055363965,0.0013349613109197515
1026.9662326960763,0.004514522335999376,1.1086583366928193e-06,0.004513413677662683
1028.7395807169569,0.00843673315420456,0.0003441984811016246,0.008092534673102936
1028.9396607691187,0.27546110918112116,0.2546143902023265,0.02084671897879465
1035.7274052599255,0.01139627916204467,0.010213439080733064,0.0011828400813116058
1036.0093642008146,0.0018889439752320057,6.266222431047495e-07,0.001888317352988901
1055.4385303267227,0.277554857837934,0.25359201984087715,0.02396283799705684
1060.4284309179864,0.004154465385515616,8.485713920276384e-08,0.004154380528376414
1062.229856066218,0.03903190025000743,0.027295312761591823,0.011736587488415608
1079.8767550469781,0.003052374089283059,1.4380409898634874e-08,0.0030523597088731604
1112.244237186716,0.006505679503649963,4.0399951244231934e-05,0.006465279552405731
1114.4615692330158,0.0011354202307467319,1.3293174835053232e-08,0.001135406937571897
1129.5731954357036,0.002666888967657704,0.001159059286762907,0.0015078296808947967
1176.146392947584,0.02729601805892979,2.846741205909944e-08,0.02729598959151773
1176.4711358731245,0.03280501044080406,6.731709093286209e-05,0.0327376933498712
1202.7043137544351,0.008347605818959245,9.982955802424971e-06,0.00833762286315682
1202.8836320470498,0.09010908141198468,0.07334407883853325,0.016765002573451426
1240.3085936523432,0.01648717395703675,2.246320268177612e-06,0.016484927636768572
1246.5496835604226,0.16130000927570068,0.1162833683951926,0.04501664088050807
1258.2225133198078,0.11398157896093822,1.1754888295842226e-06,0.11398040347210864
1267.3530960178834,0.551340254998284,0.3560102382957962,0.19533001670248784
1320.1151524023662,0.055252323372130964,0.029836666561229096,0.025415656810901868
1320.3102921638786,0.006465939397399473,0.00014543092091458536,0.006320508476484888
1351.5231610602928,0.09630680622560216,0.07635561251758594,0.01995119370801622
1354.472986683186,0.01680751479484537,5.576281369288182e-07,0.01680695716670844
1359.3942618206293,0.014282032322050438,0.004378933428295659,0.00990309889375478
1365.6523394501373,0.03479679761122961,2.4857204531156942e-08,0.03479677275402508
1414.045607610434,0.005119834623361037,0.001422724138848102,0.003697110484512934
1414.4534273512907,0.020139419895377292,2.4881265449793082e-06,0.020136931768832314
1482.6763634770016,0.05222902139419542,2.726597360738214e-10,0.052229021121535685
1491.4731368827124,0.010341580514532593,0.00017861550301906696,0.010162965011513526
1498.2736979421777,0.013595634644717386,6.950704211008354e-07,0.013594939574296284
1500.4965913834642,0.04069822011099692,0.031501436324458225,0.009196783786538695
1545.3626332266765,0.04754021378087744,0.017572346948357465,0.029967866832519972
1545.3929841800293,0.015475322393168551,0.0008569079127478683,0.014618414480420682
1660.832951414405,0.10717248416964692,0.023650823061337162,0.08352166110830976
1660.9603766538157,0.012132994915509988,2.1464272148709187e-05,0.01211153064336128
1681.7768088933706,0.818071890151681,0.3759552580085365,0.44211663214314456
1682.240678679672,0.5331686434612454,0.00010448299502521884,0.5330641604662202
1755.5777527494588,0.43519694222080024,2.753018213624014e-07,0.4351966669189789
1759.3503590035457,1.435768147607611,0.8838614579846606,0.5519066896229503
3015.0135394972463,0.4864949774798187,0.4010330058346428,0.08546197164517588
3023.913757286687,0.10607995929644772,4.9526497292883826e-05,0.10603043279915483
3032.0605206829678,0.850478189194918,0.6744432898723299,0.17603489932258803
3032.701416590149,0.02572169471647339,0.004585333018405018,0.021136361698068373
3110.258007370043,0.43029403386662046,0.00013011671913236184,0.4301639171474881
3113.7993206714455,2.0515305747044463,1.2250314346643774,0.826499140040069
3191.1906318747647,0.08992482101429969,0.04674117171645132,0.04318364929784836
3191.5065564803667,0.1918001100050238,0.0003500732970366079,0.19145003670798721
3197.4466060082896,0.6603875258209824,0.02981857503775491,0.6305689507832275
3197.539451015324,0.13837867445530627,0.005624300204327187,0.13275437425097908
3208.7762900823177,0.19672281087567736,0.021507305516962387,0.17521550535871497
3208.8574150425607,0.5012463785441421,0.0008289288743331812,0.500417449669809
3219.1576400344197,0.06919668590903424,0.0013969601137071663,0.06779972579532707
3219.595288940347,1.4446725901634971,1.1593197660907315,0.2853528240727656
3228.997142705385,0.3624734541302574,0.2536250544709963,0.10884839965926107
3229.0816923124357,1.174180542175648,0.9469090327563632,0.22727150941928473
