frequency_cm1,total_intensity,isotropic_intensity,anisotropic_intensity
1.0936614009268788,0.0,0.0,0.0
1.4063799872380388e-05,0.0,0.0,0.0
5.163718895739899e-06,0.0,0.0,0.0
2.8199993752602497e-05,0.0,0.0,0.0
1.1011855862394022,0.0,0.0,0.0
1.1401869515827416,0.0,0.0,0.0
8.082144303627405,0.0036279587749054915,7.967941355814085e-06,0.003619990833549677
18.785984100641382,0.0008454740996723543,8.664115065201933e-06,0.0008368099846071523
21.061982549756333,0.0010669557963637322,1.4138620475189033e-05,0.0010528171758885433
22.65699292655403,0.0014900178908219303,8.451457338574946e-07,0.0014891727450880728
42.550541282544934,0.0003308211640789065,1.7243382486558737e-06,0.00032909682583025067
44.22745838627625,0.0007884663391212015,5.42681051885595e-06,0.0007830395286023456
54.60725040627896,0.0011770402700410035,3.0804398275249835e-05,0.0011462358717657538
62.984585613012825,0.0008175017540650873,1.556611423465882e-06,0.0008159451426416214
64.37309760774984,0.000858488190363508,5.0686691420560734e-05,0.0008078014989429472
78.097622330692,0.000212249394422555,5.819252125808025e-07,0.0002116674692099742
92.13514583931324,0.00014761827965518963,9.60452759449523e-05,5.157300371023732e-05
102.86524790296659,0.0010160950357446692,0.00023216673959643372,0.0007839282961482354
108.10789120976618,0.002313547556379896,3.0024721971593297e-05,0.002283522834408303
114.00612022710895,0.0022988110724023996,0.0010317218375929733,0.0012670892348094261
122.79291012679842,0.00019036683493016488,1.4248388037781025e-05,0.00017611844689238387
134.63153050909065,0.005427065413503544,0.004197109017890183,0.0012299563956133601
140.9257089929952,0.00020854714385509638,4.077692116548862e-06,0.0002044694517385475
143.80427210894223,0.006117496284351541,0.0036408059337860094,0.0024766903505655316
156.15504896698442,0.00017496797947773264,2.4637343131278453e-06,0.0001725042451646048
169.64757813055644,6.154123493053963e-05,2.0701111611376148e-05,4.084012331916348e-05
172.73516696728646,6.225513907410708e-05,8.38061247027607e-07,6.141707782707947e-05
182.31270712968603,0.000541284738733676,0.0003457204577429295,0.00019556428099074644
202.33397664678208,0.002830564989303681,0.0017491771885142313,0.0010813878007894496
216.97153841745074,0.0019951857258817154,8.942001234728234e-05,0.0019057657135344332
244.10368328275513,0.001587289179586001,1.1038847116493924e-05,0.001576250332469507
245.69806604486163,0.0001815873057274376,3.2644004705363076e-06,0.00017832290525690128
246.16193284097255,6.801590743888955e-05,1.4490135513235225e-06,6.656689388756603e-05
269.5394357707618,0.019860098543018307,0.013442069517334057,0.006418029025684251
306.96416241909117,0.0004595536333124435,0.00027105998728046407,0.00018849364603197943
345.2528761370145,0.00037272266903354674,3.5266016660645936e-06,0.00036919606736748216
382.82255668782096,0.0016612020487947916,0.00043326653653707765,0.001227935512257714
416.7969847666954,0.002083379822878365,0.0015121280162498597,0.0005712518066285056
439.71012929314355,0.0035545293233483666,0.002693608926613796,0.0008609203967345707
450.75769545199455,0.0033475663955627013,0.001965439160639933,0.0013821272349227682
498.7030537995708,0.0002796477669042849,0.00010930763425235627,0.00017034013265192864
507.9946917984958,7.756711404653308e-05,7.952124967202018e-06,6.961498907933107e-05
524.5411139891737,0.0040391417638937265,0.0013664754763538123,0.002672666287539914
620.479479556833,0.006941731482868907,0.0010085386997728013,0.005933192783096106
727.9150314876872,7.399449364205963e-05,6.124390293169413e-06,6.787010334889021e-05
729.2586912474715,0.00014777438842283585,1.5982394264132996e-05,0.00013179199415870284
732.4289190462987,0.00016438531456761736,8.832470687041635e-07,0.0001635020674989132
735.9235182740093,0.0005190746658648618,0.0002570166071483803,0.00026205805871648156
739.8294436971287,0.0005851708936067032,1.8384814456917448e-05,0.0005667860791497857
743.5720510427197,0.012273764987333863,0.011621721352470304,0.0006520436348635586
755.6323710042226,0.00039849106020662956,0.00013221661537426218,0.0002662744448323674
778.5091589899589,0.00018519174861476504,1.1290593115950074e-06,0.00018406268930317002
783.2341485599775,0.0006752804227788176,3.713758322404014e-05,0.0006381428395547774
820.2336660269847,0.00029109359609012406,4.3034075377797904e-05,0.00024805952071232614
858.6699206902865,0.004493316635022473,0.0031440850528150306,0.0013492315822074418
870.8080375502972,0.0011503594874761622,0.00012521330644637272,0.0010251461810297895
873.7220793315004,0.005917846808654889,0.004546056687011525,0.0013717901216433646
908.2429861587473,0.03320602625323266,0.020412810217794744,0.01279321603543791
915.5880117549958,0.03784090180714736,0.023798795894451785,0.014042105912695576
920.0458190093897,0.022566080975706854,0.016657792641161687,0.005908288334545168
969.0988311192737,0.0015898485830876884,0.0010001945798984706,0.0005896540031892177
990.4175352497625,0.0002496544128159725,3.330294397204443e-06,0.0002463241184187681
1004.776626675472,0.0013367812703653885,0.0008395126319446523,0.0004972686384207363
1014.6263495046601,0.001134815539055593,0.0002719030881476965,0.0008629124509078967
1017.6865459206282,0.004209726273343777,0.0034572529316124,0.000752473341731377
1026.9868332318304,0.004994215006067913,2.5381735691453026e-05,0.0049688332703764606
1040.7559194795242,0.0029017736203380564,1.9187449640368007e-05,0.0028825861706976885
1051.0099222579897,0.0049246441329263944,0.003186846456005483,0.001737797676920911
1054.785631369487,0.0009965371655917983,0.00013927070188802243,0.000857266463703776
1062.95404826544,0.005340210481534317,0.004143758416382111,0.0011964520651522059
1072.5441686982665,0.011124519399662207,0.00040325043819035045,0.010721268961471856
1080.7800080269126,0.0038098076512949,0.0019415386827216434,0.0018682689685732565
1086.0705560370618,0.002109254603058651,0.0007109527944267464,0.0013983018086319043
1086.7847521820715,0.04648223275945615,0.004691975127340404,0.041790257632115746
1088.6634316011666,0.1052812518257869,5.10137661157004e-05,0.1052302380596712
1091.4875160294116,0.00014964984999343812,4.407497414626729e-05,0.00010557487584717082
1092.0535043117602,0.0002014138204589248,5.737393995485008e-07,0.0002008400810593763
1097.5834527578825,0.005210880179527909,0.0002772797304072229,0.004933600449120687
1116.1009840100655,0.07882867647132127,0.037127217056328626,0.041701459414992655
1120.4915172433286,0.020967462754447934,0.00999442734839519,0.010973035406052743
1155.9200934272185,0.24564918311247452,0.15965944403824123,0.0859897390742333
1156.9933813162788,0.05928319355714888,0.022263781223911917,0.03701941233323696
1185.7347098140533,0.0013860876672363285,6.883724299558775e-05,0.0013172504242407407
1204.7162074186856,0.016634947213349866,0.00010830088170681394,0.016526646331643052
1219.4168095329621,0.006040209904964763,0.0021745146760916148,0.0038656952288731485
1221.4052580827247,0.003298675989083901,3.367314004865658e-06,0.0032953086750790355
1238.4614812118432,0.004453268170892283,0.0006070425050247692,0.003846225665867514
1241.942174718335,0.003140683939405566,0.0004523618785520152,0.002688322060853551
1248.1970748885901,0.0005174356298528213,8.964392077028888e-06,0.0005084712377757924
1264.4581298099902,0.0028564279247240846,0.0005109584114495524,0.002345469513274532
1271.583399546433,0.001193419645821309,3.2997329337535795e-05,0.0011604223164837731
1274.6198144316409,0.0013559921793071313,7.858943511970106e-06,0.0013481332357951612
1287.3099520161063,0.0015364390285037641,0.00026123788270503937,0.0012752011457987248
1299.2262730571204,0.0012798264168892904,2.0147893363612596e-06,0.0012778116275529291
1303.254678184885,0.006058458801882428,0.00021340259456493097,0.005845056207317497
1308.8580302932803,0.0018924323062250437,2.5346841955875358e-05,0.0018670854642691683
1319.6963186292319,0.009872338652808219,1.7605229295200138e-05,0.009854733423513019
1325.480884184693,0.135488206975866,2.3462108194242326e-05,0.13546474486767177
1327.543119316788,0.005438683988462131,5.066058159367793e-06,0.005433617930302764
1329.8138347316344,0.04673464403910755,0.0011383927497035681,0.045596251289403984
1332.0745444005809,0.0013710237917736062,4.084937285907785e-05,0.0013301744189145282
1333.9780156223428,0.0072267235852979715,0.0005151065529990048,0.006711617032298967
1336.8932173782466,0.018071241565272952,1.4002688114265367e-05,0.018057238877158686
1338.0669405025035,0.0086025376333135,1.259550811038089e-05,0.008589942125203118
1338.6223504949878,0.0007159939440832001,0.00018546733356903432,0.0005305266105141658
1341.1879823104468,0.005445524800119639,3.265103861591753e-05,0.0054128737615037215
1353.0414217841626,0.00033622284219298306,0.0001949666479463987,0.00014125619424658434
1356.241710271453,0.0013566432276540211,1.1547191129541123e-06,0.001355488508541067
1377.7485462750278,0.0015893882539412079,0.0004309219210429321,0.0011584663328982757
1395.9691541904215,0.0026399803143441623,0.0001469615950028284,0.002493018719341334
1408.220763454192,0.004944809205025965,4.461021805478299e-05,0.004900198986971182
1409.309293593019,0.0007829476641912107,0.00013305007445321742,0.0006498975897379932
1412.9004002120416,0.001703315511475127,0.0011402169535545468,0.0005630985579205802
1414.8771789707446,0.0018590115924687568,0.0006485183405741312,0.0012104932518946256
1418.0081653108598,0.006514901391108536,5.2835402298082676e-05,0.006462065988810453
1420.5410509164174,0.00734419297361374,5.135466537404005e-07,0.00734367942696
1421.533957133319,0.00041775809943337777,4.242465145851352e-06,0.0004135156342875264
1429.5615971190027,0.0032712446273811925,3.21556545381776e-05,0.003239088972843015
1480.1545130906945,0.004382391613819064,0.00011499063793220239,0.004267400975886862
1480.349759246704,8.327478154947136e-05,4.481454156763859e-07,8.282663613379497e-05
1482.1884295043553,0.004411086907242169,0.00032168756384119994,0.00408939934340097
1482.2777093737018,0.0586361342447819,0.004040220683379059,0.054595913561402844
1482.837840544891,0.0032517526160886906,0.0005331342837565664,0.002718618332332124
1484.6808493148517,0.19903127643114432,0.014070401135896023,0.1849608752952483
1486.0464305321966,0.0026321965147837385,0.0010553676027233148,0.0015768289120604237
1486.873303082966,0.015324362455037651,0.0017469128867733782,0.013577449568264273
1488.986754800806,0.08721660056033889,0.006734153667970823,0.08048244689236807
1490.4182281352835,0.018423254030040862,0.0019098319270535774,0.016513422102987285
1493.6572804134169,0.008377342370763024,2.6281453528535522e-05,0.008351060917234488
1493.7722685969877,0.027250109312570624,2.014761326581798e-07,0.027249907836437964
1494.9662110471882,0.026917675856654864,6.289757164422571e-06,0.026911386099490443
1496.8294591249985,0.01794914247616866,1.3462593447526805e-05,0.017935679882721135
1498.602895162131,0.006739562147668375,3.7325988977468905e-06,0.006735829548770628
1501.5665819107674,0.0012812638720294857,2.257304220054059e-05,0.0012586908298289452
1504.0904696467082,0.0014814823161957021,0.0001096574264066357,0.0013718248897890664
1505.5157170156272,0.0032659671305126934,3.6700532342452974e-05,0.0032292665981702405
1506.4159878344858,0.0006874896907464167,6.0104747771760506e-05,0.0006273849429746562
1519.375792743361,0.007402162914988224,0.000450491497353662,0.006951671417634563
1832.2197563265202,0.09350856943102212,0.032533150493257584,0.06097541893776453
3021.836449027708,0.059031675760396446,0.05282606061797476,0.006205615142421683
3022.228033623779,0.021604561393300935,0.020958210798876213,0.0006463505944247216
3023.6873453382655,0.295388871145399,0.2753589917850548,0.020029879360344206
3024.470779992395,0.21965874967871685,0.21613119911012926,0.0035275505685875876
3025.7184475970625,2.5537812046728434,2.4883041167028104,0.06547708797003321
3025.8167735721045,0.9755268273206684,0.9533511137487295,0.0221757135719389
3027.2331453043334,0.4775416929444597,0.4718856596987319,0.005656033245727781
3030.7637202017927,0.5101510054158132,0.4871757683250585,0.022975237090754698
3034.890218339658,0.008766048562818755,0.0006541521508041334,0.008111896412014622
3038.966129651412,0.23199123190070867,0.20673701734990632,0.02525421455080235
3041.220765497381,0.3237543636555371,0.29851749378137066,0.02523686987416645
3043.439681637671,1.2700102394301769,5.394488799780177e-05,1.2699562945421792
3044.1733608755717,0.46260060007491477,0.42287935290852335,0.039721247166391416
3045.110286402368,0.19117770898822306,0.07862488429405007,0.11255282469417298
3045.3343024576166,0.2713203482627618,0.2293615937344462,0.04195875452831558
3047.9914305690936,0.44254488516439555,0.08910734982219781,0.35343753534219774
3049.701415956992,0.9216962408458975,0.9144020694494537,0.0072941713964438624
3051.0386922698926,0.4499045646019164,0.4308092669695784,0.019095297632338002
3052.035152676356,0.934449638999532,0.9252946436373862,0.009154995362145845
3053.7826619886478,0.18516908606446605,0.17523165821921388,0.009937427845252164
3055.155101196241,0.48532787819298506,0.0004161548781190597,0.484911723314866
3059.132123397583,0.16736799481253636,0.026217489935203207,0.14115050487733316
3065.692467988178,0.009637574455434056,0.008599714460437268,0.001037859994996789
3067.784929941217,0.3035307210966146,0.2748287289992929,0.028701992097321716
3072.6708586755253,0.12883996115038543,0.002494418858137615,0.12634554229224781
3079.038275632576,0.008015659363957331,0.0027594894708887663,0.005256169893068565
3080.6686538772765,0.03846384025836729,0.0027235566076220063,0.03574028365074529
3084.9129327228725,0.06646979664319937,0.004722625417635496,0.06174717122556388
3089.449923968174,0.022896195807767118,0.015564888232602483,0.007331307575164636
3091.887675429555,0.3850012037916535,0.07214666486856369,0.3128545389230898
3093.786754292782,0.4144708554342427,0.362070289081574,0.052400566352668695
3099.618460346873,0.14201876206861005,0.024880724873858697,0.11713803719475135
3112.6760311100443,0.12852452391977717,4.10589256551809e-07,0.12852411333052063
3114.9227961074803,0.11430857906812252,0.00043758747411450495,0.11387099159400801
3118.7044687994307,0.014273187730637559,0.0002845528245775784,0.01398863490605998
3120.7451097208527,0.4097372954329922,0.06259320764921242,0.3471440877837798
3125.217616659218,0.41986083971593835,0.07161098744075123,0.3482498522751871
3144.938636964251,0.13671496730456584,0.026353785830604437,0.1103611814739614
