frequency_cm1,total_intensity,isotropic_intensity,anisotropic_intensity
1.5453595243562561,0.0,0.0,0.0
2.0492148920726407e-05,0.0,0.0,0.0
1.6116579254279335e-05,0.0,0.0,0.0
2.5798053631605907e-05,0.0,0.0,0.0
1.3035089412435255,0.0,0.0,0.0
1.9184189793438193,0.0,0.0,0.0
15.52093524721277,0.02569575113575524,4.293571223890777e-06,0.02569145756453135
19.409632935457996,0.007263293921280273,4.882361171787761e-05,0.007214470309562395
29.151047827936836,0.0018121026053933736,1.2395096921446965e-05,0.0017997075084719267
46.91412857491877,0.0018779151288765247,6.489807957446216e-05,0.0018130170493020625
59.821741636029685,0.006176832376074426,0.000257220840681037,0.005919611535393389
93.39733078725321,0.0032416200430106443,0.00012867766056912395,0.0031129423824415203
104.27569935836114,0.00019328087550699927,5.655543476873359e-05,0.00013672544073826568
126.82556661489063,0.007798230588311361,0.00022903219999396854,0.007569198388317393
145.2190620369681,0.0020226399042793143,0.001150262956310532,0.000872376947968782
216.03561357953183,0.008852775401399348,0.00338898467273422,0.005463790728665129
221.96928312512145,0.0026863335692963804,0.0016627825448700365,0.001023551024426344
237.89376105894002,0.004988491907043247,0.004246820830310495,0.0007416710767327526
262.7363289914707,0.0018321670564356788,0.0006652257679127123,0.0011669412885229665
282.36867075318037,0.0020413669849003997,9.084615804943231e-05,0.0019505208268509675
308.69140625888735,0.002805422414294511,0.0005577703389281085,0.0022476520753664025
348.9449638403427,0.00034169074081733127,2.392881114308779e-05,0.00031776192967424347
385.5077008775774,0.0011072949057344477,2.343228529728936e-05,0.0010838626204371584
416.82468592937914,2.0330838597326133e-05,4.2091054334314256e-07,1.990992805398299e-05
467.92632640219074,0.0028235542975585696,4.989482419155213e-06,0.0028185648151394143
522.393379679137,0.0077769792948889135,0.005167875429682711,0.0026091038652062025
562.0463797698029,0.0034369415915040447,0.0009732432583079926,0.002463698333196052
599.0980792203569,0.004025574260396563,0.00031009413842424626,0.003715480121972317
636.0605988528768,0.017121460855693413,4.616385836911726e-06,0.0171168444698565
722.6068410240971,0.0001328459843342822,2.3470964348702032e-05,0.00010937501998558016
732.0590216384907,0.0014451516476339215,0.00015388908832903573,0.0012912625593048859
747.3568741597361,0.0006105685508441871,0.00018290192707963478,0.0004276666237645524
769.7933324038653,0.018812729956602357,0.016698349909327,0.002114380047275357
782.4788574391282,0.006216154586155187,0.0008957494683877699,0.005320405117767417
818.4108965900913,0.019809401852459614,0.008290892007580548,0.011518509844879066
836.4402473771406,0.04946512901549086,0.04572054393043537,0.003744585085055494
870.5003889006638,0.005753106285696999,0.0010033981381992307,0.004749708147497768
873.0121910264882,0.007860201593953876,5.337362745626146e-08,0.00786014822032642
892.3904457364794,0.10956517326086267,0.08336259401514601,0.02620257924571666
939.7078173136991,0.01200992447129565,0.0029094883010116574,0.009100436170283992
956.2189413680127,0.0021457827317113982,0.0013157568948790465,0.0008300258368323518
962.720526084283,0.012839272875825406,0.0042498985896536196,0.008589374286171786
1007.1175106418035,9.20282852869e-05,6.730890398704604e-07,9.135519624702954e-05
1021.1397036381239,0.018424562655319072,0.01594855371831746,0.002476008937001614
1025.7471722433525,0.053799863487727036,0.04803208809160365,0.005767775396123384
1027.0870350732118,0.10221286426950818,0.08929380660922467,0.012919057660283513
1038.6999953270004,0.02601939244371245,0.016714116730555312,0.00930527571315714
1052.6812916407587,0.02792609556310117,0.004851145860472768,0.023074949702628404
1064.4853883841943,0.11460407918740134,0.10516605182527503,0.009438027362126324
1078.250361014312,0.0052215079407729025,0.0002401973147928862,0.004981310625980016
1087.040794853244,0.012863084658445692,0.0006408275120629612,0.01222225714638273
1100.3949887228314,0.0035885851646897796,0.00043582199734331896,0.0031527631673464607
1113.0530484310814,0.04062125175373194,1.459430349217201e-06,0.040619792323382725
1124.2801757067891,0.023574092180480306,0.0001424681238745874,0.023431624056605718
1135.156086669278,0.020718414424296814,0.0002350376499975722,0.02048337677429924
1169.4928099842068,0.004045912234275971,0.0006284149640415281,0.0034174972702344427
1171.6560584447757,0.0159767995513792,0.014780784043694678,0.001196015507684521
1177.504293482408,0.023357979952997456,5.461901129578734e-07,0.0233574337628845
1204.8017340226952,0.02024162346443169,0.0014701571219164836,0.018771466342515208
1233.0244603654796,0.01316892236457728,6.169757849784907e-05,0.01310722478607943
1239.8323336919636,0.08249182129628072,0.07130530525243232,0.011186516043848392
1261.9311730080715,0.031784787608145446,0.024783653459217837,0.0070011341489276055
1273.4397058054622,0.004815041090774354,0.0009281125802652025,0.003886928510509152
1283.9245281799322,0.007753905337447451,0.006123653415299102,0.001630251922148349
1301.038431349342,0.005643477295843442,0.002592943524862393,0.0030505337709810488
1317.9571445233614,0.0029712365627916236,0.00017807478952125714,0.0027931617732703663
1322.3153681071274,0.04872348284114415,0.0038393824827225006,0.04488410035842165
1329.7580087520937,0.006143003809467683,0.000558067441220662,0.005584936368247021
1332.6904382989542,0.05151682013410909,0.00042241592353477544,0.05109440421057431
1344.4185074882257,0.004949729945177404,4.2955364258490664e-05,0.004906774580918914
1355.5575403446117,0.038964712820535825,0.005630840749529094,0.03333387207100673
1364.6532300887932,0.0007804345376867642,0.00016948451849499362,0.0006109500191917706
1372.1979747533308,0.029276561683685837,0.015445054567191162,0.013831507116494677
1405.820960239676,0.011556655632280529,0.003391388800698492,0.008165266831582037
1411.7652969855055,0.009188113110013864,0.004179528299334849,0.005008584810679016
1415.4250803480854,0.00918456385028755,0.0032400685358611897,0.00594449531442636
1448.8113612009477,0.00488760288465463,0.0026802755427997697,0.00220732734185486
1474.2606913703637,0.03209719207357935,0.0015738044353253663,0.030523387638253983
1480.9265966348255,0.03533554410143858,0.0006538963531614508,0.03468164774827713
1481.661014027676,0.07689365614246173,0.011332913776796528,0.0655607423656652
1487.541892663336,0.012075702852042819,5.281333641902422e-05,0.012022889515623796
1495.4211465584985,0.0013137486622751154,8.063648277614596e-05,0.0012331121794989695
1496.2428879368165,0.015092561983616602,1.7051361509552504e-05,0.01507551062210705
1499.074017811729,0.004687009688587316,8.577687471395804e-06,0.0046784320011159205
1502.2663547417217,0.011318851690934351,0.00017193581208506463,0.011146915878849287
1513.3849436337712,0.027547757476202982,1.3268265564950958e-05,0.02753448921063803
1545.7876407703102,0.0017189081507343904,0.00019244119158080806,0.0015264669591535823
1661.9437528662106,0.03429536139348093,1.2640006126109125e-06,0.034294097392868324
1683.7907262235406,0.16430553838560719,0.02111635058410916,0.14318918780149803
3011.7649666409816,0.5246359016371394,0.4311738731842245,0.09346202845291485
3028.7910026153845,0.19276811951344852,0.14433766889981503,0.04843045061363348
3030.5532669084346,0.39802457620291365,0.16299947352337993,0.23502510267953375
3036.444000287415,1.575392591036782,1.4376818131583373,0.13771077787844477
3041.638916003065,0.13938739635425337,0.1252754066361998,0.01411198971805357
3043.0426966763057,0.4159714916262606,0.356712968104631,0.05925852352162966
3043.4726227722217,0.3051679435956361,0.058018609336878565,0.24714933425875754
3053.218951419583,0.3115710937701077,0.2603933151000195,0.05117777867008823
3061.214066761151,0.5760730330448529,0.5514722645557437,0.02460076848910916
3064.000487730888,0.5308384901643846,0.04469872163547739,0.4861397685289071
3066.5617869467947,0.2682664731199786,0.13470496715189695,0.13356150596808164
3084.3166210530435,0.13210530471076706,0.0036222620590912924,0.12848304265167576
3089.750353848296,0.08406421581341991,0.039764928792323594,0.04429928702109631
3093.656415811452,0.4374804099020951,0.16311955520484273,0.27436085469725235
3105.3044564246006,0.03260434070785918,0.00030534646008510203,0.03229899424777408
3112.0203297409535,0.06692427665228147,0.04160614426116437,0.025318132391117094
3181.5258332301655,0.15005834972359428,0.0883702351020581,0.061688114621536186
3182.589587058216,0.32889725991192026,0.013184465827364555,0.3157127940845557
3197.513550492971,0.5604979855000393,0.16886346452346604,0.39163452097657325
3206.168744776858,0.20199179040883505,3.321260548009876e-05,0.20195857780335497
3219.1693046524492,1.4077904435423223,1.1417705506328175,0.26601989290950484
3879.3245663543794,0.6378624088292167,0.3864425255974109,0.25141988323180586
