frequency_cm1,total_intensity,isotropic_intensity,anisotropic_intensity
1.5956479072310934,0.0,0.0,0.0
1.8986005179234497e-05,0.0,0.0,0.0
1.6669139965904083e-05,0.0,0.0,0.0
3.699105070753551e-05,0.0,0.0,0.0
0.9045322068032383,0.0,0.0,0.0
1.0603508328732218,0.0,0.0,0.0
15.762549574206535,0.00046936093517137544,1.3942596152441004e-05,0.0004554183390189344
24.88751503084352,0.0014614204945917737,2.4355887884544887e-06,0.0014589849058033193
30.345649148851386,0.0001003767611890832,5.172012815711461e-06,9.520474837337174e-05
35.81902139891373,0.000413216595089233,6.713255284678857e-05,0.00034608404224244443
58.272841155977304,0.00014609343616171755,3.712750288670223e-06,0.00014238068587304732
71.90548575575836,0.0002453170314785315,1.0749952679472367e-05,0.00023456707879905908
72.97340821762107,0.00020833110118782263,0.00014325607190194032,6.50750292858823e-05
102.99069295083297,0.0004485133323736526,0.00014548571065833542,0.0003030276217153171
114.81570274445691,0.00026186984849132654,0.00011676127682800609,0.00014510857166332043
121.27624284466364,0.00015245691895618635,6.53482151036798e-05,8.710870385250655e-05
145.2088254875779,0.00028838331417336,0.00019915056171638233,8.923275245697766e-05
162.91532243301162,0.005902512280163917,0.002845927386895476,0.003056584893268441
163.72324572720748,0.0013292468842145003,0.0008811133044844272,0.00044813357973007306
170.85667393252965,0.0015748929444500664,0.0011518987269265168,0.0004229942175235496
183.4852947340904,0.0007735892147877785,5.157762810271791e-05,0.0007220115866850606
192.19428523100032,0.012884923734509095,0.008024578253856803,0.0048603454806522926
245.80984244258104,1.9029623148645427e-05,9.299660084798362e-09,1.902032348856063e-05
257.7567491231605,0.001614903725955764,0.0003706455875113755,0.0012442581384443886
271.66611598303575,0.0006629621217137605,0.00020817483009631213,0.00045478729161744835
303.34973967152223,0.0018871578922042094,0.0006090779033676759,0.0012780799888365336
336.97093655849204,0.0006931030203847237,3.313885619685834e-09,0.000693099706499104
372.0256060959053,0.00030356400367731744,7.798195270718728e-05,0.00022558205097013016
398.39881527307443,0.00043971388512001146,0.0001842888969936445,0.000255424988126367
420.6049005727222,0.001918463989519545,2.1978543066992026e-05,0.0018964854464525531
456.04839004943096,0.004280412080317083,0.0024962494086838744,0.0017841626716332084
488.1177644350801,0.0024605320052452553,0.0003652929831092435,0.002095239022136012
507.3191645715198,0.002771456459414514,0.00026342335209466006,0.002508033107319854
532.7693147956899,0.005104109179857868,0.0023335994335946563,0.002770509746263212
636.8684961444321,0.005200304032476681,0.0003950505031482021,0.004805253529328479
728.3997683856531,8.348377318373266e-05,1.238006218498147e-05,7.110371099875118e-05
731.4982594655866,0.00013119036101191112,3.4369866163524296e-05,9.68204948483868e-05
742.3778724744026,0.00016856806243143553,6.283635049305214e-05,0.00010573171193838338
766.3818073620062,0.0004418420183495286,0.0001861713167759334,0.0002556707015735952
795.4382010095771,0.006381806298739568,0.00030113740701269475,0.006080668891726873
805.1225315584502,0.03892596258081098,0.03422268193757614,0.004703280643234836
808.406768196027,0.02136197035948814,0.018759688822700665,0.0026022815367874757
862.2144958109317,0.00020515087733554945,1.2717062711628371e-05,0.00019243381462392107
908.2506858937752,0.0318608931468336,0.01998633402716153,0.011874559119672074
912.7157376756132,0.013483944121659661,0.00027063713673967937,0.013213306984919982
927.3704178712516,0.00022593596546317406,2.898891289847849e-05,0.00019694705256469557
966.2837580421674,0.017006568352249028,0.005508809097416256,0.011497759254832773
992.5481250162138,0.0013743942331855136,0.00015453432527375962,0.001219859907911754
995.5981385668533,0.016015303237142654,0.0013451606596150678,0.014670142577527587
1008.3804081665509,0.005004297556685341,0.0005429383258806315,0.004461359230804709
1021.7212828353358,0.01425897993085448,0.0032516278694477724,0.011007352061406708
1038.1875079590038,0.0036012358449090884,0.0001528629406535423,0.003448372904255546
1047.9384659387506,4.059156067397229e-05,2.4139938954105643e-05,1.645162171986665e-05
1054.1887669548971,0.003439314481286188,4.151690029094207e-06,0.003435162791257094
1077.0273194208935,0.029028511090729327,0.014000557048444608,0.01502795404228472
1083.9223315336312,0.04056727637058338,2.2185822623894986e-05,0.04054509054795949
1090.7684820133593,0.04753721005335253,0.00013096216095376327,0.047406247892398765
1092.1068534288083,0.0049091444774303945,0.002197327617253929,0.002711816860176465
1106.7983813896358,0.010108179123423815,4.948309424540225e-05,0.010058696029178412
1114.577090646234,0.021357297073770196,0.006992113990743168,0.014365183083027026
1141.4107229303056,0.0032306854945704433,0.0020378973781170814,0.001192788116453362
1158.109108289502,0.1829080872649783,0.10300900440713952,0.07989908285783877
1161.702809398481,0.028795678769854574,0.006936784038696641,0.021858894731157933
1193.9781278956416,0.005004791711084865,0.00011704104645494102,0.004887750664629925
1214.1687078852028,0.005838867174030954,5.185970525523099e-06,0.005833681203505431
1226.4316778281507,0.017703983385277337,0.005696822247328053,0.012007161137949286
1230.8475502595536,0.002289028688905237,1.5026998239904222e-07,0.002288878418922838
1246.7006711207264,0.0011106842475865116,2.6352082443761427e-05,0.0010843321651427503
1254.854440938049,0.015528084574750705,0.003505789271422559,0.012022295303328146
1270.2251037369772,0.0026283258081472166,0.0014013060881817234,0.001227019719965493
1279.0330981580082,0.00425559350481214,0.00013846669619654848,0.004117126808615592
1302.682530703027,0.0039003043404276403,0.0007333634982137226,0.003166940842213918
1306.4768825712258,0.0024821929715416685,0.00031613352028032036,0.0021660594512613483
1319.536278227804,0.0601142428457384,0.00012029422320030666,0.059993948622538096
1324.158086691816,0.02216016190685386,6.859838477452154e-05,0.02209156352207934
1328.3247585927013,0.06074795370561187,3.263703565410508e-05,0.06071531666995776
1329.7735685618982,0.0029776440282719744,7.054644108767547e-05,0.002907097587184299
1337.3058863593715,0.0004763411095823669,4.325158365298501e-08,0.00047629785799871394
1338.524239121436,0.0025386837721497442,1.413029381533537e-05,0.0025245534783344087
1345.6255448216796,0.001811176937600242,2.57979156671549e-05,0.0017853790219330872
1370.3732503810604,0.009231129826666297,7.853459497254758e-05,0.00915259523169375
1374.0139226644656,0.006229340312993216,0.0005977762469251874,0.005631564066068029
1379.4798689975435,0.001216450401753102,0.0008343654533377254,0.0003820849484153765
1398.650075917486,0.0006535151832619823,3.250887722875169e-05,0.0006210063060332307
1406.9911570897623,0.0031130269820767776,0.00026296745369392105,0.0028500595283828564
1412.7112312909067,0.0014668370394876362,0.0006155124689648962,0.0008513245705227398
1418.1105610740835,0.009306878795732155,0.0002314841796546525,0.009075394616077502
1420.237500106475,0.0033974754384182436,0.0008085991829349577,0.002588876255483286
1422.0200601917343,0.015015382762215415,0.0018792512770684285,0.013136131485146986
1439.8353649549474,0.006245471611083856,0.0018005134852517488,0.0044449581258321075
1461.02495189505,0.008630988543915738,0.004165465040008868,0.004465523503906869
1480.6615112813895,0.0011562081069329678,0.0001883713758603275,0.0009678367310726404
1480.9829150568166,0.0005885936475172406,0.0004161170559764468,0.00017247659154079375
1484.0017882036393,0.10046116965908983,0.00874800861239843,0.0917131610466914
1484.339669520427,0.05003747057606001,0.0013595586282252132,0.0486779119478348
1488.0580543557403,0.05923899849102972,0.004820111173360195,0.05441888731766952
1489.653312619038,0.0323277860736117,0.00028239642020170576,0.03204538965340999
1493.2302332445167,0.0017361191791732938,0.0004095555424851296,0.0013265636366881642
1493.7668125560003,0.027059254856186363,3.0360796821599694e-07,0.027058951248218145
1498.069882584971,0.014235084625139826,0.0005181989755042401,0.013716885649635585
1501.988860301377,0.017325064158582763,6.796289105194169e-05,0.01725710126753082
1502.76355312044,0.002448893079589698,0.000390628144817405,0.0020582649347722927
1506.051954162668,0.002468720185453152,2.377001958148222e-06,0.002466343183495004
1520.5870527868121,0.017755459145098566,0.0013608050354014937,0.016394654109697072
3013.637175303733,0.2745719168057211,0.20675600367448213,0.06781591313123894
3022.3910739993216,0.21152400148990386,0.19536319655039672,0.01616080493950715
3023.674602836542,0.15206849234762718,0.14694910202327705,0.005119390324350133
3025.5800499997076,0.8845102062460868,0.8532761779411495,0.03123402830493732
3026.6401357536274,1.7385408620092462,1.705086777280291,0.03345408472895531
3031.4047505395856,0.3667783145764292,0.3481124792060229,0.01866583537040626
3032.978193570252,0.3583944415731616,0.2078605430752148,0.15053389849794677
3037.6208855546092,0.04851725890936371,0.03614134386118111,0.012375915048182598
3041.2766820785946,0.46809779724598244,0.4341175371468643,0.03398026009911814
3042.306691355726,0.4028129983733201,0.21860416047535816,0.18420883789796194
3044.343871748094,1.0227067532105774,9.326738288744469e-05,1.0226134858276898
3047.956270072536,0.06931033712428358,6.597327494178935e-06,0.0693037397967894
3050.02912360781,0.8674729661460249,0.8601947524399185,0.007278213706106344
3051.2717445812495,0.29883032010364835,0.28430828027318006,0.014522039830468288
3054.0085962415897,0.2811046832181202,0.024685063778907317,0.2564196194392129
3060.561750533596,0.9951530742000357,0.8210556219351289,0.17409745226490683
3061.965298775548,0.0580744907167892,0.05352656534202747,0.004547925374761729
3067.3040106675066,0.36306630063220824,0.11030496551633864,0.2527613351158696
3072.7577196945745,0.04712366693065414,0.003798097321730358,0.04332556960892378
3081.189529693686,0.03669713175059121,0.00023580430726918755,0.03646132744332202
3088.467310193035,0.018291721112971573,5.102339949516246e-05,0.01824069771347641
3096.0999130759415,0.29416126941168275,0.02924873264563711,0.26491253676604565
3101.1344854146855,0.028635139328874588,0.001263497493763021,0.027371641835111565
3112.98650701037,0.12901840669531375,1.8032972597166499e-06,0.12901660339805404
3117.0008294987215,0.5140716562991329,0.22712170136693333,0.28694995493219955
3121.133588344854,0.40960598751745836,0.06256581882391786,0.3470401686935405
3742.4818736369452,0.26934574439824943,0.16965970325438717,0.09968604114386229
3805.5986845041684,0.11050042208768447,0.08708834986734727,0.023412072220337195
