frequency_cm1,total_intensity,isotropic_intensity,anisotropic_intensity
3.5869895431445924,0.0,0.0,0.0
0.5928710538328889,0.0,0.0,0.0
0.44097423974654465,0.0,0.0,0.0
2.1922124821480688e-05,0.0,0.0,0.0
1.257850220750029e-05,0.0,0.0,0.0
2.2382388087919897e-05,0.0,0.0,0.0
12.906555971114225,0.012525096514853984,2.5995266146650537e-07,0.012524836562192517
18.794659597627827,0.007221862567317984,2.6177282208232305e-05,0.007195685285109752
19.659612901487886,0.013727904533409574,1.0031219793030497e-06,0.013726901411430271
27.669877562394582,0.00032314831169598954,1.1656762411565971e-06,0.00032198263545483297
47.655625447928564,0.006907814356792502,0.0002077608383322986,0.006700053518460203
52.71064248549459,0.0009723460659032595,2.1943933265770771e-07,0.0009721266265706018
66.11982868847875,8.623674315420842e-05,7.424758921573913e-07,8.549426726205104e-05
91.95437207067103,0.003098648050040879,0.0004464910168316999,0.002652157033209179
95.43439821229866,4.734457734980824e-05,9.004328278296244e-07,4.644414452197862e-05
107.59017011861,3.1970932864290014e-05,5.923813903795954e-08,3.191169472525205e-05
136.5610744507884,0.010326446330158915,0.008489397368902842,0.0018370489612560745
137.6271562721227,0.00012387306162386723,2.2659309121363334e-05,0.0001012137525025039
144.68005079395178,6.559580334952519e-05,2.0833485597117362e-05,4.4762317752407824e-05
157.55514506330002,0.002091389592988404,0.0015523009840734674,0.0005390886089149368
169.04855276825026,7.978394505717411e-06,6.536283436001418e-07,7.324766162117269e-06
171.48305265918506,2.5734929467665403e-06,2.658196487083343e-07,2.307673298058206e-06
215.13297917781506,0.001718644477171659,0.0013299637183612344,0.0003886807588104246
246.04061968510968,2.0316438488356024e-05,6.356724562194866e-08,2.0252871242734074e-05
269.30122257641403,0.00033552222453320593,0.00012571039614941076,0.00020981182838379517
307.8778974848751,0.004206991772811526,0.00012758264518359207,0.004079409127627934
313.66713342780827,0.0005049110318636989,8.156348582098372e-05,0.0004233475460427152
329.8816367816229,0.007894239372310524,2.7107768974910234e-05,0.007867131603335614
366.42179675772377,0.004974180597387288,5.476928184016628e-05,0.004919411315547122
408.0118419310489,0.009209000853293873,0.00642501196459115,0.0027839888887027232
424.302360063924,0.0003953456504675285,0.00018709315532614685,0.00020825249514138164
427.2257030242704,0.0007277826628224834,0.0003289608038616332,0.0003988218589608502
435.16917771356935,0.0032467535074134487,3.9201860397915735e-06,0.003242833321373657
493.06855942926813,0.0022301459573395,0.00020002599185420104,0.002030119965485299
497.20567139859094,0.0023668066140541564,0.000884619561935382,0.0014821870521187746
521.9686386153022,0.008299482301303698,0.003509820058231287,0.004789662243072411
568.815740134282,0.0026765275360831477,0.0005317085700884263,0.0021448189659947214
657.0133791351338,0.023172933990936367,9.868878165665656e-05,0.023074245209279712
727.9193545136616,0.00012052988833727293,2.4475942727943836e-06,0.00011808229406447855
728.8120755488,3.099681941271127e-05,1.038786458845703e-06,2.9958032953865565e-05
732.3835546721426,2.552256146844842e-06,7.617284565714041e-07,1.790527690273438e-06
742.1864837348678,0.00024915398183372685,2.808884365866738e-07,0.00024887309339714016
744.4792604658102,0.002941309656550106,0.0004984304527110118,0.0024428792038390943
762.8706484252349,4.8645740628017315e-05,2.732112600741805e-06,4.591362802727551e-05
789.3158510349334,0.0023918882652385173,0.001919042549886602,0.0004728457153519154
796.9262385885982,0.0007470365467072067,5.206473522392449e-06,0.0007418300731848143
835.0463766029908,0.004415008226343056,0.001810162567164345,0.002604845659178711
842.9139391671812,0.00038809174640677186,0.00015059889857935543,0.00023749284782741644
859.6708967578882,0.057135397027944866,0.04989209812480984,0.0072432989031350255
875.4823325515314,0.1442424215264971,0.12999479032877428,0.014247631197722826
896.6413439374053,0.0010668052268255905,3.317742863281847e-05,0.0010336277981927721
908.3758280537087,0.03446454309226861,0.02145631416093537,0.013008228931333243
952.4660823241594,0.00016592107258435983,2.9006284991245735e-06,0.00016302044408523524
965.5395668263045,0.0013888293564743462,0.0006377033586805958,0.0007511259977937503
991.8427585524619,0.0003419513387515941,0.00014675403239609725,0.0001951973063554969
1005.4697446245218,0.0007645764466566621,5.282090194887559e-07,0.0007640482376371733
1010.1779317558388,0.002257111727827484,7.132529699008641e-06,0.0022499791981284755
1013.9092977076688,0.0049734169978902405,0.001520091460153988,0.0034533255377362524
1037.778210780938,0.004042755389586149,0.003902939911928007,0.0001398154776581421
1040.6141825454806,0.0005478439954536375,6.259797862250279e-05,0.00048524601683113473
1050.2729290834181,0.0001940368231461125,1.4790757226790191e-05,0.0001792460659193223
1056.736258061589,0.007052322755023828,0.00407414824875035,0.0029781745062734777
1064.9278352026806,0.01187943535976994,0.0013912566544189075,0.010488178705351034
1082.6575038079095,0.0008626078740024368,0.0004830773674154515,0.00037953050658698524
1088.566343666788,0.1035180939838363,1.296255938837992e-06,0.10351679772789746
1091.200695041254,0.0013687564302846335,2.7858701977181444e-05,0.001340897728307452
1091.8153762585864,0.00038290645925958427,4.826292973387582e-07,0.00038242382996224553
1098.0607396371834,0.0031977925340153524,0.0003174042602255112,0.0028803882737898413
1112.0132233930824,0.09296570627410236,0.04422463271029862,0.04874107356380375
1135.6528103372448,0.00045319463268828265,5.349942215476307e-08,0.0004531411332661279
1155.4553368155591,0.23407204541308613,0.13706581037306395,0.09700623504002218
1189.7405618486275,0.02664518241172452,0.013711686518808174,0.012933495892916346
1196.7504896276682,0.0266695001555688,0.013207420247177365,0.013462079908391437
1206.35684112814,0.013469753668730395,0.0002638606221296054,0.013205893046600789
1221.1705545017255,0.0018097889828406705,0.0011663396999195377,0.0006434492829211327
1228.6340739067405,0.0026684818151615198,0.00022567107433060213,0.0024428107408309176
1240.498683418884,0.05558439611496188,0.047608106058135785,0.0079762900568261
1252.5577811768342,0.014331731422826937,0.012138612347686317,0.002193119075140619
1256.484823612674,0.003142003104794023,0.0009336970077753766,0.0022083060970186463
1281.2519975926352,0.0037241856771380024,0.0030698477074943093,0.0006543379696436932
1282.7415149747394,0.003764310746874176,0.0020879787711129256,0.0016763319757612503
1295.2061384183128,0.08665679506117596,0.07611558624717857,0.010541208813997395
1304.2747017748861,0.006785843636033513,6.27363294819328e-08,0.006785780899704031
1311.7191667943312,0.010671705660944355,0.006887521326239418,0.003784184334704936
1319.924887267555,0.002689417319942897,0.00018664407779840153,0.0025027732421444957
1324.984084264916,0.1511914732296364,1.3603840418759768e-05,0.15117786938921762
1330.5954591960392,5.800122738392343e-05,2.331737611880926e-06,5.566948977204251e-05
1331.2759639999883,0.0003733628236133669,0.00015325321080266683,0.0002201096128107001
1336.4148402824474,0.0074077540890426855,9.394888731350685e-05,0.007313805201729179
1337.6146793432467,0.0005534344905239191,3.836962911988577e-05,0.0005150648614040334
1339.9852477274374,0.0011976207448268065,2.5421051162974274e-05,0.0011721996936638322
1342.1362824651696,0.016773564995996894,0.011969714904690908,0.004803850091305984
1360.064863622668,0.005029270576872704,0.000973883705577672,0.004055386871295032
1368.875894752139,0.01934697519410429,0.00815250824693397,0.011194466947170318
1389.6540834939008,0.022535335602444327,0.011639272642148112,0.010896062960296214
1404.6846912278727,0.014722911989871678,0.00461868095119484,0.010104231038676838
1412.475841523799,0.0006745586321633649,0.00012939720694630548,0.0005451614252170593
1415.7641781720613,0.005440983365624313,0.0011757802996318894,0.004265203065992424
1420.644265898049,0.008914534199186397,0.0002049096522534743,0.008709624546932922
1420.7606271653472,0.0007735145590273644,5.281774844093523e-06,0.0007682327841832709
1480.3120366646117,0.005061692865474251,0.0004880169227997369,0.004573675942674514
1480.3830530451462,0.0023600605664879067,0.00018322615235581398,0.0021768344141320927
1482.4105728457173,0.008628317551341193,0.003136274559065133,0.005492042992276061
1482.7022496137683,0.0011037047251260456,0.0008252380035594161,0.0002784667215666297
1484.6917209799433,0.2617202809893523,0.0252598546285555,0.23646042636079678
1485.7614265665702,0.010153252451693379,0.00011139843198748336,0.010041854019705896
1486.0934721353383,0.00021802836557572908,1.421620627558106e-06,0.00021660674494817099
1488.9785434275211,0.029816105880125007,0.0006364007178282133,0.029179705162296794
1492.9673604274387,0.0010619450998825106,0.00015769468894753655,0.0009042504109349741
1493.7417453219487,0.027051985729113673,3.166266859452841e-08,0.027051954066445078
1497.3680841753635,0.007391152493449002,0.0001641800936559415,0.0072269723997930605
1501.5227273492603,0.0005125151972357234,6.340403234237053e-05,0.0004491111648933528
1504.796070405136,0.0036970499821542047,0.0001338107327055742,0.0035632392494486308
1506.4247253094647,0.0012952745683713933,7.929841460649955e-06,0.0012873447269107433
1567.8293139918117,0.004109839542429552,0.00023567419654451692,0.0038741653458850356
1672.8568013832137,0.026151706070231484,0.00215879989666194,0.023992906173569545
1695.46400486199,0.257712696777293,0.05855074440191862,0.19916195237537443
3021.629393858089,0.025794650884523606,0.022848732608198932,0.002945918276324673
3021.988384336429,0.03997598460470805,0.03830458210326152,0.0016714025014465236
3023.453875219327,0.052197893784109564,0.03848424617286367,0.0137136476112459
3024.0754953255596,0.33364080939204704,0.3268101013998995,0.006830707992147506
3025.307901125795,3.3226319493413885,3.2742119335780346,0.04842001576335399
3028.005813607662,0.06211379553786326,0.05808222661956733,0.004031568918295929
3032.455595191766,0.43820205115647615,0.42781464841394834,0.010387402742527804
3036.6717588491106,0.05979440696847181,0.05507375137206419,0.004720655596407623
3039.581145300479,0.7093696446352337,0.6930817602246864,0.016287884410547286
3041.328796942871,0.25373861829246896,0.2281725800455104,0.025566038246958564
3043.1917349193186,1.3547276255116207,2.6289011955403625e-05,1.3547013364996654
3044.6092064257327,0.02510048539293118,3.6216469287780484e-05,0.0250642689236434
3047.641823912104,0.2815746979669858,0.00023645639591823368,0.28133824157106757
3049.7623581301154,0.9542670145764806,0.9479829116263843,0.006284102950096255
3049.9673787661263,0.250834052124444,0.21718923509127921,0.03364481703316478
3052.553196428492,0.001696787533409513,3.542183351821205e-05,0.0016613656998913009
3059.108318423123,0.162986541165367,9.369690366632323e-06,0.16297717147500038
3066.1213431861165,0.0020024455210169135,1.179131032909817e-05,0.0019906542106878154
3072.4884232478225,0.1727484416146611,3.816759459900811e-06,0.1727446248552012
3078.441080128528,0.0007872570485384628,3.251436513696334e-06,0.0007840056120247665
3084.1207641441233,0.07023233677030838,2.6884339865305016e-06,0.07022964833632185
3088.9057977416537,0.001228079067416056,2.69020521156433e-05,0.0012011770153004127
3097.486567493061,0.03779187442367471,1.7806450657033106e-05,0.037774067973017675
3112.683982080367,0.12771628364940685,1.3892744598522341e-05,0.12770239090480834
3120.947842505182,0.4103138389930232,0.06310077133327908,0.34721306765974413
3176.676781156988,0.24528592463842327,0.021751046139760068,0.22353487849866321
3186.19896938197,0.2961993041525228,0.09964766380196655,0.19655164035055625
3195.252066497005,0.6615857736050379,0.5064265449476123,0.15515922865742565
3222.4333679928754,0.6734626377356897,0.4379530508971085,0.23550958683858117
3867.754146657032,0.5025055352548327,0.3196923576877895,0.18281317756704316
