frequency_cm1,total_intensity,isotropic_intensity,anisotropic_intensity
1.300829947737243,0.0,0.0,0.0
1.0302905376860603,0.0,0.0,0.0
1.709572781315442e-05,0.0,0.0,0.0
1.6252195733832543e-05,0.0,0.0,0.0
2.51373054388287e-05,0.0,0.0,0.0
2.68902801075081,0.0,0.0,0.0
6.815924246398875,0.004150143392506418,1.194154796010769e-05,0.004138201844546311
10.582607206571073,0.01079022277721611,4.381229315901255e-06,0.010785841547900209
24.16663303129522,0.01776744600461092,0.0015988082487394075,0.01616863775587151
26.778552719729525,0.007670958401945537,0.00025077408257993214,0.007420184319365605
70.5080593155811,0.022132665760553255,0.0002672150434813019,0.021865450717071952
88.39242171684826,0.026323594732722763,7.56810898987078e-05,0.026247913642824056
171.42420433939785,0.02502079212418793,0.01032928435738298,0.01469150776680495
198.10385699148964,0.01080582866604648,0.0001867048027744836,0.010619123863271997
216.75929943690107,0.008768309510445597,0.0009598757489735589,0.007808433761472038
220.36771240999468,0.002167893348765682,0.00026826937120304336,0.0018996239775626387
227.95480897028705,0.004707323808858004,0.0009516422880776256,0.0037556815207803788
234.82056886915782,0.0079265385882349,0.0015267368258405148,0.006399801762394386
259.72910071554327,0.020963320461004676,0.0001700407214259821,0.020793279739578695
300.4799052823916,9.610612194593423e-05,1.145631086548806e-06,9.496049085938543e-05
302.68397657313295,0.00024192156092273697,1.3639605286172333e-07,0.00024178516486987524
317.0735361555166,0.0012457281359604785,0.00010367829250388889,0.0011420498434565897
329.23106413847495,0.00854844542268498,0.00011925188297885682,0.008429193539706123
396.7983471768908,0.00204900778504347,1.7813898726308243e-06,0.0020472263951708393
439.02718737284357,0.0029228810457007,0.0015443708144194947,0.0013785102312812055
456.9785476564078,0.0012253187954990598,8.937334831008984e-05,0.00113594544718897
461.5080220185309,0.0011480312854658145,0.0006879896036303353,0.00046004168183547915
464.0386661747604,0.005784629014088965,0.0027284527414882967,0.003056176272600668
466.7042511915782,0.002800646481626343,0.00037562161555921675,0.002425024866067126
530.3786080220333,0.0011930830156529552,0.0004927705882467815,0.0007003124274061736
532.4949605573311,0.004024101026768765,0.0004460068115147223,0.003578094215254042
550.8104139639086,0.04389899719400059,0.013417127099071181,0.030481870094929406
555.7479705790746,0.0444913089415384,0.030563623163747895,0.013927685777790508
574.7795140104762,0.027964823895257142,0.0019703203223916913,0.02599450357286545
581.5160246762892,0.038684532666511486,0.031804087572943784,0.006880445093567703
585.4961629892329,0.00742123914344024,6.929991132075868e-06,0.007414309152308164
603.8364277474755,0.0050356774928699225,0.0014778783092886483,0.003557799183581274
631.5298011822073,0.02201903142865857,0.0029364935726732453,0.019082537855985324
666.3368506772716,0.008775211726758162,0.0013697564143372028,0.007405455312420959
693.3914962041722,0.015135095844608853,4.5415066050938363e-07,0.015134641693948344
710.9211227026441,0.0014569993379337318,0.0004968813575882001,0.0009601179803455319
715.1493837848401,0.010057186467156923,0.00901661864876742,0.0010405678183895025
718.5267998936774,0.00624712547455224,0.00016554717109599568,0.006081578303456244
755.1287862317396,0.10454666906635737,0.10242917811192201,0.002117490954435363
773.6876691891774,0.011339466266770395,0.007402127457001164,0.003937338809769231
790.0770536884577,0.023029625177923552,0.00938583574695161,0.013643789430971942
802.0641780657238,0.03281180154166935,0.023037263330945676,0.009774538210723674
804.8938322295045,0.007007798126932207,6.129212879158033e-06,0.0070016689140530485
809.6454222015353,0.01401179321999705,0.001732674235079871,0.01227911898491718
883.3322027124364,0.0008678453645157625,7.46333454160707e-06,0.0008603820299741555
884.2026106349124,0.002120495840179852,0.0014338182746472254,0.0006866775655326267
889.939704696738,0.0011911496855413002,0.0004962231734230273,0.0006949265121182729
896.3498906571942,0.0012515351863261264,0.0001484508664240603,0.001103084319902066
900.0334184067012,0.003192991066018253,0.000205687331903763,0.00298730373411449
905.6213838810853,0.005500656048574993,0.0038230365997631455,0.0016776194488118468
950.1925474535569,0.00034812067831028223,1.2290556843916979e-06,0.0003468916226258905
990.8505068983842,0.09043023788963886,0.07686515924094181,0.01356507864869705
999.8328850849272,0.00031420000058986317,4.176498712503773e-05,0.0002724350134648254
1001.6240522196388,0.000679220202174163,9.735023758758911e-06,0.000669485178415404
1003.8473923209424,0.0030093468753958977,0.0014899548859691602,0.0015193919894267377
1018.1413332719028,0.017273699971423036,0.0009689513607779917,0.016304748610645042
1021.8036501284985,0.279386603929394,0.21992653918003302,0.059460064749360976
1023.0521041975015,0.016572466243793778,9.564691827204247e-05,0.016476819325521735
1024.8978624942868,0.6446170375830892,0.5170616949340684,0.12755534264902083
1088.3873744292996,0.013686354379679577,0.010690427128273557,0.002995927251406021
1091.5140614028617,0.01996226242798272,0.01063042873751841,0.009331833690464312
1120.2745330647615,0.0909560323835811,0.04608457637073716,0.044871456012843945
1129.2589618794493,0.014833223734572418,0.00010599992745398546,0.014727223807118432
1131.5879200463037,0.029303731000810934,0.010168247057861155,0.01913548394294978
1145.3588702028935,0.006576471632709576,0.0013330234498778715,0.005243448182831704
1175.8268307883027,0.02598057775252082,0.023729209218479402,0.0022513685340414175
1179.3517883363509,0.02005001522203463,3.616610180154266e-05,0.020013849120233088
1186.7306855119532,0.02157244984736236,0.001991335694718845,0.019581114152643516
1200.5465882996618,0.10325268051272632,0.07031263806242305,0.03294004245030327
1216.1492326718492,0.040442490536074856,0.0026672994357193696,0.03777519110035549
1290.7374194186361,0.012706806645835816,0.01003015207790078,0.0026766545679350355
1309.2385522359182,0.3152027556085734,0.25908361376607175,0.05611914184250167
1312.8066171816838,0.04482982013504323,0.03078143725297643,0.014048382882066803
1319.565801883884,0.014598414603808802,0.004130976755061098,0.010467437848747705
1331.1313081067885,0.03276997530372382,0.0019313943110812978,0.03083858099264252
1334.022795115448,0.07026360465062595,0.04356223833366099,0.026701366316964965
1342.0804075713834,0.011811286129650938,0.008858243720530018,0.002953042409120921
1350.240217357564,0.12541636969031142,0.09085697807204658,0.03455939161826483
1351.380438073729,0.013629172436850558,0.00822388673102021,0.005405285705830349
1502.0385610538656,0.0183569869767864,0.0034897348601152355,0.014867252116671163
1512.4166322238023,0.03712740284776865,0.0036677862880651556,0.033459616559703496
1519.2633870398035,0.03190773353699509,0.004838016767477145,0.027069716769517943
1530.9599437886247,0.0050496702328789375,0.00010028715935713366,0.004949383073521804
1542.595683955527,0.011646101839668457,0.00039545358099690535,0.011250648258671551
1544.0843434311996,0.009177067741374985,0.0023000967871558992,0.006876970954219085
1649.769940295987,0.026560804287124,0.010704467611489493,0.015856336675634505
1652.0240447042052,0.02088293773134478,0.01630715095655875,0.0045757867747860306
1657.799503617897,0.05763327636762052,0.0043171664457106315,0.05331610992190989
1663.1457311804527,0.09514404814147709,0.0038313807486428106,0.09131266739283428
1668.3179152369335,0.3646374668708165,0.10721531666586649,0.25742215020495
1681.640004851051,0.12057715016357316,0.002910847063840601,0.11766630309973256
1686.8470825703062,0.23996668975514143,0.0061056129449485064,0.2338610768101929
1696.416310180399,0.15302558019644588,0.0074247918439180145,0.14560078835252788
3193.1788061676175,0.2899504152731442,0.01095859810182481,0.2789918171713194
3193.714240413116,0.32764368627745355,0.020944561691474975,0.3066991245859786
3203.973736343476,0.32937865314421677,0.09122974259511521,0.23814891054910153
3205.8828972582733,0.10064841390629384,0.045449174766559776,0.05519923913973407
3209.1852812342026,0.5364434160387225,0.2948113320842829,0.24163208395443958
3210.8551771538478,1.0220308867829095,0.5619831073052727,0.46004777947763686
3213.7405283516446,0.5208708206310391,0.32916551326743626,0.19170530736360278
3234.8280648284203,0.2595747969595851,0.1404531214189599,0.11912167554062517
3235.1443824555117,0.6356154173033949,0.4225557423195367,0.21305967498385822
3235.6400038829865,0.21643243050522068,0.10249795497437732,0.11393447553084336
3236.5309286404045,0.3688251035481778,0.25391904107275837,0.11490606247541944
3240.7525513812584,1.0823664519695353,0.894538663923169,0.18782778804636616
3607.4809540901047,1.104037236258524,0.8235316112091395,0.2805056250493844
3608.8971728372717,0.8838218316205866,0.6749173265905677,0.20890450503001884
3705.5832363231702,0.3067574321299607,0.0012765741529896565,0.30548085797697105
3706.2444640940184,0.2612467491280457,0.0010156004202196167,0.26023114870782604
