frequency_cm1,total_intensity,isotropic_intensity,anisotropic_intensity
0.6224588651648177,0.0,0.0,0.0
3.9117544630492444e-05,0.0,0.0,0.0
2.1819475539703846e-05,0.0,0.0,0.0
2.1050560386112714e-05,0.0,0.0,0.0
0.5322237874627221,0.0,0.0,0.0
2.094066356830728,0.0,0.0,0.0
14.296284744297077,0.020839616609869976,6.538647325824429e-07,0.020838962745137392
25.062935228802566,0.011182739299036711,0.00014051036799502193,0.01104222893104169
30.8128326775529,0.0015127685865291684,8.577312490902922e-09,0.0015127600092166775
44.829190600505875,0.00018318204524347365,1.4961796260947997e-08,0.0001831670834472127
56.859509248073195,0.0023687324469293114,1.332442009550722e-07,0.002368599202728356
68.11227542998493,0.0015367385243802343,5.682536574288005e-05,0.0014799131586373541
93.5435083274276,0.000280154259021166,9.573612304445154e-08,0.0002800585228981216
105.9424269341871,0.00022329929316655415,4.89387798902007e-08,0.00022325035438666395
126.34376791678928,0.0030748772079561212,0.0019170331510440259,0.0011578440569120951
152.07801443188427,1.2414784401596689e-05,1.123763317576769e-06,1.129102108401992e-05
159.7799373485487,1.8235903286485565e-05,1.6814110096187072e-07,1.8067762185523695e-05
168.72878489588348,0.008313597561279279,0.006374642421821753,0.0019389551394575265
184.9864283146221,0.0003109974033723167,1.59587396004555e-05,0.0002950386637718612
199.7057359352854,0.0005018456522991504,4.373994072076145e-05,0.00045810571157838887
234.96552647220804,0.010669949288817756,0.006571786275759601,0.004098163013058154
246.01119357461187,1.9901257895636756e-05,1.1153538173325754e-06,1.878590407830418e-05
305.9648614789508,0.00026027796730879096,1.4602318880796999e-05,0.00024567564842799397
330.5450053668526,0.006189829242131545,2.723388455851659e-05,0.006162595357573028
350.1558193499047,0.001543445298213827,1.1649220074607528e-06,0.0015422803762063662
386.1128212812449,0.008818309223441062,0.005305343488833974,0.0035129657346070885
419.4286849875392,0.00016147649258779949,1.4431013655738974e-05,0.0001470454789320605
442.70386387805326,0.0010664099310397231,0.00016827245005526895,0.0008981374809844542
470.6986230424556,0.001201719016317239,0.0004476605260494613,0.0007540584902677777
477.51370973798174,0.004979708946516071,0.002081955450790932,0.0028977534957251388
534.824283560671,0.0035646792611296265,0.00020348567177636213,0.0033611935893532643
592.1673273816492,0.0035203673207386994,0.0009687562235560392,0.0025516110971826604
609.58011060354,0.0013762761784455297,0.00020477488028263112,0.0011715012981628986
651.5486787139471,0.030609308426196913,0.0002818755881276009,0.030327432838069313
708.840289014333,0.020222577689832377,0.015164425362127183,0.005058152327705193
728.6085969205653,0.00028450271502190384,1.3267792596115106e-06,0.00028317593576229235
733.4671998835549,1.190349861108767e-05,2.337828801770506e-06,9.565669809317163e-06
752.0321081367291,2.8603819478081774e-05,7.506226752695019e-06,2.1097592725386755e-05
767.1006634247506,0.013498269576950182,0.010152370449827973,0.0033458991271222097
797.4419025403115,0.0006088928884489445,2.275178480892371e-06,0.0006066177099680522
843.2783268274408,0.1279760570630859,0.1116852863201946,0.0162907707428913
865.3275763014841,0.009784324708855048,0.008113245654075821,0.0016710790547792263
868.7593851104472,0.007466110115321521,0.005938755958913939,0.0015273541564075825
879.5728138900497,0.0043766984624215854,0.0029780185710494176,0.0013986798913721682
909.0550440870154,0.02589815600075437,0.012907122977887042,0.012991033022867329
948.3682734135062,0.0017429022852958147,0.0003642785214445464,0.0013786237638512683
971.0125438615727,0.03207604934328799,0.022549546845475214,0.00952650249781278
993.3704217004648,0.0034860720025799673,0.0015833869015645537,0.0019026851010154138
1015.8167917645796,0.007244174986119887,0.003913814016746325,0.0033303609693735624
1020.6077012499078,0.0004905814289403568,0.00016121703711058442,0.00032936439182977236
1025.9039500609206,0.0005204681978282705,0.00024520908767110673,0.00027525911015716375
1035.6545829452252,0.0032152233690608983,0.003192017017165215,2.3206351895683014e-05
1044.268089732159,0.009201753977232848,0.002929193155086118,0.00627256082214673
1046.2796236198242,0.0006556717919093987,1.5319196795025104e-05,0.0006403525951143735
1068.647434420373,0.030082723978114387,0.004097493518935548,0.02598523045917884
1077.513081229022,0.05400565995552916,0.025453286224827718,0.028552373730701443
1089.3728878740521,0.03265649022163774,0.004299179931343261,0.028357310290294476
1091.6017506348758,0.0514480505335355,0.013867394648079219,0.03758065588545628
1102.4349778166968,0.08620523444749319,0.05821244448359533,0.027992789963897858
1104.8690981119657,0.051495510916409845,0.03781487972966066,0.01368063118674918
1144.3280946812863,0.0019130754623071285,0.00033848783510846117,0.0015745876271986673
1150.160095746334,0.17312005072806208,0.10589660156662337,0.0672234491614387
1207.6821198712835,0.05457438365746069,0.03939450849522655,0.015179875162234138
1211.2070020366384,0.009152655053658688,0.0001310177697000545,0.009021637283958633
1233.2082964954468,0.011321891721852407,0.00837154759085939,0.002950344130993017
1243.993892148561,0.07906794985292744,0.06333248239641702,0.015735467456510412
1249.228956912221,0.007188599405297721,0.003062042725271974,0.0041265566800257475
1281.7070465720547,0.022658528489108695,0.015615095228512644,0.007043433260596052
1287.38885960128,0.026869477977976994,0.013606664789636786,0.013262813188340206
1293.179213748598,0.2190569284919545,0.13344929567911024,0.08560763281284425
1316.622004351059,0.0040280952373075146,0.0008323466586890749,0.003195748578618439
1326.7537253219896,0.03641742919122193,0.01982174675545606,0.016595682435765872
1326.9941577535647,0.08763807360540975,0.0006244927205166199,0.08701358088489312
1330.4875878930102,0.0039198551588221255,0.000753354132138336,0.0031665010266837897
1334.5302376820166,0.000553071006454809,5.1447162116622505e-05,0.0005016238443381866
1336.595585624366,0.0007620970346221803,9.1050896550604e-05,0.0006710461380715763
1349.5061082183763,0.002800202292479867,7.916445019833299e-05,0.002721037842281534
1366.0368576997175,0.047971152139182474,0.018826099756705326,0.029145052382477145
1385.7725453646624,0.02107401502304047,0.010614609240979213,0.010459405782061258
1393.9818511844092,0.03924550017025047,0.01892218339712773,0.02032331677312274
1411.216978791689,0.008368144033298776,0.003367194219838877,0.005000949813459899
1414.1611750386762,0.0047585453254137605,0.00024194888203029838,0.004516596443383462
1420.0432889215203,0.006362068920973915,5.216550711783476e-05,0.006309903413856081
1461.5499796598092,0.017716142887081426,0.008604872234300209,0.009111270652781216
1470.6483040616233,0.01945167188125707,0.0008205776501589444,0.018631094231098128
1475.3096835444628,0.02787595722790523,9.281450722359714e-07,0.027875029082832993
1480.7308216022857,0.020141432793303153,0.007316396101204933,0.012825036692098222
1481.2906090823126,0.0021864088254693074,0.00039189853070546493,0.0017945102947638427
1483.883408555218,0.18949149208217989,0.02154248162560689,0.16794901045657298
1486.0255181867417,0.00953853406857014,3.173827450779779e-05,0.009506795794062342
1490.9370953305997,0.02921919744317609,0.0007712733176218507,0.028447924125554237
1493.8055371981432,0.027536601450826866,2.1206640542159022e-07,0.027536389384421444
1497.1145658343646,0.0013335047165292779,6.142292592748035e-05,0.0012720817906017976
1503.010002088046,0.007527091473482112,0.00026631324338186095,0.00726077823010025
1506.244683758685,0.0024249347519934073,6.7740044194547295e-06,0.0024181607475739528
1562.32807568118,0.022787530291171247,0.004967774361757833,0.017819755929413414
1649.5906621551355,0.028592104509173384,0.00843248405786962,0.020159620451303765
1688.1294869612382,1.0161651945566004,0.2823699699736142,0.7337952245829862
1789.8825132519614,0.3309315032520838,0.16834290412277791,0.1625885991293059
3023.000227816173,0.2724843333764503,0.25367118830056073,0.018813145075889572
3024.525325540242,0.6867834237795393,0.6778017649231112,0.00898165885642812
3027.353871535802,1.1004100915247672,1.077910210328643,0.022499881196124047
3033.7813084625914,0.02086894394898067,0.010978394203405871,0.009890549745574798
3040.5150904283614,1.0022968259749359,0.9621458384529789,0.04015098752195704
3042.590258531614,0.06663096075513514,0.06374524010022989,0.002885720654905246
3045.012927919036,0.8826857300069597,0.00015606696729019706,0.8825296630396695
3049.942000165446,0.9562836444346954,0.9473729074064834,0.00891073702821201
3050.5889279813973,0.014641501767853532,0.0014684419474810964,0.013173059820372436
3056.102972176914,0.42151567405977947,0.36661419312919324,0.05490148093058621
3060.613517321693,0.23807403404172267,0.00012493208168301996,0.23794910196003966
3064.4977136952293,0.7445339655842966,0.7361764401597855,0.008357525424511158
3071.539951451462,0.0006563550176402063,1.032826079642562e-05,0.0006460267568437806
3080.3512036716834,0.18529064067656928,5.185349501525272e-06,0.18528545532706775
3087.919362619657,0.0007875690362888746,4.778676889784711e-06,0.0007827903593990899
3104.4138193155127,0.07616260011144173,0.00017187393039765097,0.07599072618104408
3112.9154141285417,0.12825612768557018,1.0032580310283357e-05,0.1282460951052599
3121.1096154482884,0.418581472288427,0.06420644339176293,0.35437502889666406
3128.900627127369,0.17517270505725316,7.485980139270133e-05,0.17509784525586045
3178.727426807427,0.46684275251507956,0.1092634575141138,0.35757929500096575
3189.1825250421916,0.30683864220833396,0.04493839374689584,0.2619002484614381
3190.134621046579,0.330828962056864,0.21650768501308587,0.11432127704377815
3221.2772711720145,0.3638887960763797,0.2284499476337713,0.1354388484426084
3225.6337691751346,0.5150669214418722,0.3697658030468022,0.14530111839506996
