frequency_cm1,total_intensity,isotropic_intensity,anisotropic_intensity
1.7969846149813682e-05,0.0,0.0,0.0
1.6976525841450828e-05,0.0,0.0,0.0
2.6156593840468087e-05,0.0,0.0,0.0
1.0896420528022754,0.0,0.0,0.0
1.1900019139907978,0.0,0.0,0.0
2.45418442276409,0.0,0.0,0.0
13.978318053168682,2.452582330815466e-07,1.8578492823272954e-11,2.452396545887234e-07
17.4508955626195,5.106639296665447e-08,1.641245733356613e-11,5.10499805093209e-08
30.109886048406583,0.0018900221198173144,5.2216037830183e-05,0.0018378060819871313
38.612295185746724,3.2467233704865564e-09,1.193355017866357e-10,3.1273878686999208e-09
58.74484944360719,0.0034808307686252926,0.0001243675234114465,0.0033564632452138463
67.36380398524108,0.0015724210787524129,0.000266593473725064,0.0013058276050273488
84.21058154248871,8.924802666348688e-10,3.0722790907483253e-10,5.852523575600362e-10
86.10365688082196,4.264936265430522e-10,1.3049355759417225e-10,2.9600006894887995e-10
95.23817503814757,0.002222063349125954,0.0005559903219742158,0.0016660730271517384
97.28839695807537,7.111597711181918e-08,1.705442054417336e-08,5.406155656764583e-08
129.48675754977464,3.67281562115489e-09,6.848347506833443e-10,2.9879808704715457e-09
132.43038189431385,0.001464138764698344,0.0003378495098000134,0.0011262892548983305
157.0270693041221,0.0005031973946343609,0.0002391961683717826,0.00026400122626257826
184.710517978643,0.017785829035630165,0.011908850255362414,0.00587697878026775
232.91481785133723,3.367873147443187e-10,1.1712441033787786e-11,3.250748737105309e-10
234.13414570215937,0.00015182844621313562,9.623670938207579e-06,0.00014220477527492805
277.0329527989348,2.9930825276565256e-10,5.676274039565958e-12,2.936319787260866e-10
286.8658908615039,2.2530411217063757e-10,1.20893459365482e-12,2.2409517757698276e-10
289.6428941849027,0.0003494835414230182,4.559125455163014e-05,0.0003038922868713881
332.3303306196395,0.005172959571696367,0.0037792586874671624,0.0013937008842292045
344.76154664213243,1.7057188802001535e-09,8.446705966840387e-10,8.610482835161149e-10
384.24517910403034,3.3668895050855475e-10,8.552877146432786e-12,3.2813607336212196e-10
427.65264106958534,0.008604378280314412,0.002943759055380972,0.0056606192249334395
534.5590468789511,0.008014926994191563,3.093543611645572e-05,0.007983991558075106
540.8848546999305,6.01701257320372e-08,6.677853731645629e-10,5.950234035887265e-08
590.0678358075363,0.0018369822480340898,0.000653220688118398,0.0011837615599156917
596.6001064695188,2.0491476626181764e-09,8.0820054215852e-11,1.9683276084023245e-09
708.6824944548235,7.017581821007004e-07,2.464546389202898e-09,6.992936357114975e-07
708.8747398827255,0.0048641240815661966,1.0922114408141172e-05,0.004853201967158056
738.4801273944877,8.676299112504357e-10,3.652556271935208e-10,5.023742840569149e-10
762.8987925425383,0.003575248453465903,0.00022120766206382606,0.0033540407914020767
763.0288777267876,1.054422740010233e-07,5.8272888988425875e-09,9.96149851021807e-08
806.2290328411358,0.0012418695421368602,2.8278557093957407e-05,0.0012135909850429028
879.2930942403932,0.0833070224848494,0.05526553367174825,0.028041488813101152
881.0458245983731,9.72729295669768e-09,5.9291038269180616e-09,3.798189129779618e-09
905.588977462269,1.2413643582982906e-07,8.664145919601344e-08,3.749497663381563e-08
905.6843374670295,0.06413702105374687,0.04561583232528221,0.018521188728464654
923.7882013810612,5.883165270537941e-09,3.568777372763669e-09,2.3143878977742725e-09
939.0241967714359,0.02069341711794636,0.01194829678465589,0.008745120333290468
940.1530159287597,1.7539729804790236e-08,8.447712600045459e-09,9.092017204744778e-09
1018.3347439321665,2.1910962587616113e-09,1.6955914595111747e-09,4.955047992504366e-10
1029.3867183216585,0.04044460189037899,0.03543317213017675,0.005011429760202241
1061.5363843401246,4.039724627517014e-09,9.143677262956685e-10,3.1253569012213457e-09
1064.3473950069254,0.03909126831222814,0.0046109070659468435,0.034480361246281295
1073.934531459168,0.08049596575426579,0.021829173491339223,0.058666792262926565
1085.4873062633344,2.8399643255453365e-09,1.9075707460013716e-10,2.649207250945199e-09
1107.890371913642,0.003438891875504449,0.00015456796939283902,0.00328432390611161
1120.5133575297639,0.08996233588202407,0.05507401346930446,0.03488832241271961
1141.2056059079118,7.425978555328422e-08,5.119638053661501e-08,2.306340501666921e-08
1141.3905117399493,0.058716870162370226,0.0429698632013887,0.015747006960981524
1171.4004334863457,4.046831969936717e-09,6.286600786959564e-10,3.418171891240761e-09
1190.6701183050072,5.647172610321206e-09,2.1157996989186061e-10,5.435592640429346e-09
1196.2712962604596,0.0038737049891483023,3.72227418394086e-05,0.003836482247308894
1204.321558937108,1.9785807573207397e-09,9.767738623211883e-10,1.0018068949995513e-09
1218.3305919377913,0.01076940803303212,0.004318737142459184,0.006450670890572936
1269.4549279374014,0.00810532117733636,2.702374084086848e-05,0.00807829743649549
1282.2824893502918,1.0905095470851982e-09,4.8092019535371366e-11,1.0424175275498269e-09
1292.079673625983,0.008664567316534554,0.0037189155994174893,0.004945651717117064
1294.5156670867123,1.9711014554279716e-09,5.727547940322995e-10,1.3983466613956721e-09
1322.1383096334046,7.020058998190635e-09,1.0924923506308555e-10,6.9108097631275494e-09
1332.6657671247333,0.045113391254956926,9.161937313803648e-05,0.04502177188181889
1336.1640211341862,0.011661108938448623,0.0001910771764326083,0.011470031762016015
1339.3226410906038,2.29573428966717e-06,1.0383060801732681e-08,2.285351228865437e-06
1339.3983059628902,0.060263494833065444,0.00026239426003067196,0.060001100573034774
1340.419910490103,2.2528624225986116e-08,1.2960275811465879e-10,2.2399021467871457e-08
1365.5445515928882,0.0038873257352607057,0.00017380833515226799,0.0037135174001084376
1409.7829552848846,4.1946842222905146e-10,1.0730843555815799e-10,3.121599866708935e-10
1415.845388344144,0.002630709227088097,0.0019367603020063915,0.0006939489250817058
1415.9113868693591,5.591870769054723e-09,3.8858233068438806e-09,1.7060474622108426e-09
1424.1436881570678,0.0009776776873675081,4.072315562027475e-06,0.0009736053718054807
1434.6457067222887,2.1812256491021028e-08,1.0436021169835645e-08,1.1376235321185382e-08
1437.5385909083236,0.0163907959346977,0.009604029753529471,0.0067867661811682285
1459.2791457451647,3.85710077394336e-09,1.5960358785407634e-10,3.6974971860892834e-09
1461.5282952223868,0.037032564607348675,0.0006079445497209612,0.03642462005762771
1486.251563827967,0.036981341393680374,0.00047381991116104256,0.03650752148251933
1489.0350699189535,2.251912528114885e-06,2.5313663125050153e-07,1.998775896864383e-06
1489.1886957069337,0.14579209665451143,0.01658214219641911,0.1292099544580923
1489.9101170253293,2.0422870880290615e-07,3.4579021332632126e-08,1.6964968747027403e-07
1489.9762875823985,0.007945278478384651,0.0012815369059430758,0.006663741572441575
1493.7291008529864,0.0019476181153134943,8.412927138661532e-06,0.0019392051881748328
1493.7296492047267,0.0480981484431053,0.00020690904807579174,0.04789123939502951
1502.3253102918677,3.9985571667055617e-10,5.94146177999244e-11,3.4044109887063175e-10
1506.4107166245474,0.001902008938822944,2.5986395798271665e-05,0.0018760225430246723
1506.4199503382963,4.195900701653314e-06,5.6763527161249784e-08,4.139137174492064e-06
1810.7987755436118,0.043269117879378406,0.031441495539506974,0.01182762233987143
1811.3318460129155,0.0007727897853200766,0.0005613787037786627,0.0002114110815414139
3053.810030178932,0.7972225929686685,0.7596817292790332,0.037540863689635245
3053.83768737467,0.0007213417497834078,0.0006786335333900447,4.2708216393363127e-05
3054.033957377679,2.222182740142623,2.204326623869296,0.017856116273327116
3056.870613325855,2.487967261115456e-07,5.33945189572211e-08,1.954022071543245e-07
3066.963154466489,1.6444685424319163,1.576560988095709,0.06790755433620732
3067.1463695285247,5.120785396819377e-06,5.553432880256312e-07,4.5654421087937455e-06
3067.214172129639,0.27980362759772504,0.15221017343694973,0.1275934541607753
3070.4493774890075,6.037331318304554e-07,5.950644572807453e-07,8.6686745497101e-09
3078.7455133841127,0.5550316263181032,0.002808674723693312,0.5522229515944099
3091.6709822233142,4.886815107063101e-07,4.790767662202009e-07,9.604744486109211e-09
3092.6948912551857,0.0002724752962443176,0.00023890531651209917,3.356997973221843e-05
3092.737136572616,0.975956904208622,0.853656722975766,0.12230018123285602
3104.3427262091195,0.3635418445698757,0.0008201206670876564,0.36272172390278806
3104.3433133001618,0.4948858146363533,0.001108924502325903,0.49377689013402737
3104.678947735377,0.13749002902232546,0.0013923410630641995,0.13609768795926125
3114.7111606591966,3.556875741317502e-09,1.4347011651299808e-09,2.1221745761875213e-09
3122.083246248051,0.012979669804048832,0.005406689012512089,0.007572980791536743
3122.084668830107,0.0726484790868898,0.03023857145260828,0.04240990763428152
3133.137409439856,0.4833136121125437,0.08125840978246272,0.40205520233008096
3133.1381592940365,0.25639355673538666,0.04310270929446089,0.2132908474409258
3146.2355008472796,1.2375699679107639e-05,1.0006419442728438e-06,1.1375057734834795e-05
3146.2436751518126,0.286894570648542,0.021095313335429865,0.26579925731311216
