frequency_cm1,total_intensity,isotropic_intensity,anisotropic_intensity
1.5468632529749256,0.0,0.0,0.0
0.5171755692320452,0.0,0.0,0.0
2.047833113446148e-05,0.0,0.0,0.0
1.925144125801463e-05,0.0,0.0,0.0
2.940225373465003e-05,0.0,0.0,0.0
0.8547644391437982,0.0,0.0,0.0
18.773198398933335,0.006112372913368007,4.8768283839313596e-05,0.006063604629528693
21.320908589793707,0.010916653328127692,1.3295925473035071e-05,0.010903357402654657
30.098002546121478,0.006717954338197275,1.4588469088720922e-05,0.0067033658691085535
39.668691119827486,0.01171548508786862,8.400722839555507e-06,0.011707084365029064
53.542371218546286,0.007393574574109165,0.00028965746404951444,0.00710391711005965
102.63359842871637,0.001982553135574609,0.0013130039119733177,0.0006695492236012913
107.2013759738786,0.0019020525660849953,2.1988155064954804e-05,0.0018800644110200406
126.52028037495386,0.0008229973219735705,2.3057907934958556e-05,0.0007999394140386119
168.27230964120324,0.008154574584623467,0.00013428666530813682,0.00802028791931533
201.88678791201852,0.007018669154314688,0.002465615059465998,0.00455305409484869
219.19855298342537,0.0018972067261645638,6.324139418539757e-07,0.0018965743122227098
252.10265891690207,0.002270235311047202,0.0017422656512098107,0.0005279696598373914
265.78639994741604,0.0018390749501839992,0.0012880782457657283,0.000550996704418271
294.3490526553509,0.0017853138233583222,0.0010722978286102473,0.0007130159947480748
319.6530102529201,0.0013412025656147487,3.4351202975530682e-06,0.0013377674453171956
357.2807938765075,0.0012955319681795196,0.0007450572122314166,0.0005504747559481031
382.69039584676403,0.00032303098111991033,5.089515483503151e-05,0.00027213582628487885
417.8128529061998,3.1457976817260956e-05,6.548703306700358e-06,2.49092735105606e-05
462.5986216970365,0.0037961645706637366,1.8111262730540395e-06,0.0037943534443906825
508.520600824085,0.014689586728274417,0.008380389850176187,0.006309196878098232
555.6258656710377,0.008714311554701261,0.0008093058272954132,0.007905005727405849
588.0099592897635,0.005575651257796327,0.0036120888418912146,0.0019635624159051127
636.0192280101691,0.015624858518240997,4.745817941231808e-05,0.015577400338828679
723.2438382255651,0.000475560616584286,0.0004029705194824725,7.259009710181348e-05
736.9238738026662,0.004485338409716587,0.0029261089339565043,0.0015592294757600825
746.7531715186454,0.0029729405751033463,0.00048512802003003696,0.002487812555073309
764.5993798900798,0.01572299882005915,0.01295768829992768,0.0027653105201314696
779.249670835113,0.02304594186378878,0.02088308090320534,0.002162860960583442
783.2682461736198,0.03210842164266407,0.01817892648855414,0.013929495154109933
813.5929854660588,0.08142359235486354,0.07355624109089291,0.007867351263970625
843.1195271844515,0.00596142188416872,3.489900826515849e-05,0.0059265228759035615
873.6777839568546,0.0034596258043528166,8.297734661734652e-05,0.00337664845773547
884.5317194750435,0.08155409512038322,0.04964514640087679,0.03190894871950643
892.2264175452129,0.011172235553725863,0.0011397696266261768,0.010032465927099686
929.6064252097848,0.006727417179118808,0.001794192509463182,0.004933224669655626
943.0923223419552,0.002849258009708518,0.00021189166125614345,0.002637366348452375
968.4192567940461,0.01999695449878784,0.005042152491363736,0.014954802007424106
989.6933217222535,0.02193685228893019,0.017741698533485426,0.0041951537554447615
1008.3184381179639,0.000140834143070331,5.274463158045887e-06,0.0001355596799122851
1015.5665520835198,0.011029140428665391,0.006036113247626072,0.004993027181039319
1026.59588109161,0.05593401999058157,0.04995803801322043,0.005975981977361139
1027.6938220505724,0.09630420723446728,0.08597583834358918,0.010328368890878101
1048.3719674483673,0.006637491100818245,0.001836988141932272,0.004800502958885973
1057.4290858619563,0.011021504913075159,0.008992518852253087,0.002028986060822071
1064.8339681355023,0.09735987168601824,0.08623798212593152,0.011121889560086718
1085.7291608471642,0.01765760564078646,0.00021582995638632374,0.017441775684400133
1098.6499628133818,0.009879512172134118,0.0002964767116458482,0.00958303546048827
1099.1996425528241,0.0037966941933870284,0.001210600786892776,0.0025860934064942526
1118.266222002187,0.06978424315460684,0.0007021853966894246,0.06908205775791741
1132.5764891017884,0.016102101659012158,0.0025297531706989468,0.013572348488313212
1145.825566121754,0.012619194547422583,0.0008290538260043523,0.011790140721418232
1172.6238322915433,0.0021752207585739435,1.6812029801613323e-05,0.0021584087287723304
1177.8589545406105,0.025562649126592663,0.0005854020483430465,0.024977247078249616
1205.3715111140432,0.01943357534644942,0.0012462493976349435,0.018187325948814476
1218.1212769897213,0.013137037898005598,0.011321643613361321,0.0018153942846442768
1232.8200685559373,0.06452122531090451,0.04978083218422965,0.01474039312667487
1240.7227628974404,0.044954745511286046,0.035437458414070006,0.009517287097216044
1265.5365900611162,0.007006960790756665,0.0025944691484613056,0.0044124916422953585
1293.5006537328713,0.009367975652291204,0.0036653576284881298,0.0057026180238030745
1304.6747783262622,0.017855825629991155,0.000912692601864317,0.016943133028126837
1315.0107087532251,0.008997397962039196,0.004159223122904889,0.004838174839134308
1323.8710837389028,0.015578053116638202,0.0003548225152684641,0.015223230601369738
1328.064655508285,0.03617974927236203,2.6381727641953913e-07,0.03617948545508561
1342.4327755323545,0.005928067646955088,2.6449892392764357e-05,0.005901617754562324
1343.360884241204,0.004959524929047736,6.661500130295649e-05,0.004892909927744779
1356.4098065839928,0.021510122499374115,0.0048490589919143,0.016661063507459814
1362.977233700575,0.02751708637606759,0.008279436367225427,0.01923765000884216
1375.5883335160088,0.06943526173355222,0.02869028443564966,0.040744977297902565
1379.8884264405074,0.008584595889785829,0.0006199175159305,0.007964678373855328
1405.9193470186,0.002618453614129208,0.0002868530517594599,0.0023316005623697485
1411.0510261283973,0.00858004767165025,0.003854007854529028,0.004726039817121223
1413.0023522842541,0.004578529667437755,0.002312216105003296,0.0022663135624344586
1416.1132472146148,0.004302463100292489,0.0006637928762247339,0.003638670224067755
1479.0137121134203,0.06043968317635624,0.00016231988281302794,0.06027736329354322
1481.7497399564948,0.022945032422372162,0.002987570167069408,0.019957462255302753
1482.3874573348842,0.03833310388984227,0.0021731227145826604,0.036159981175259606
1486.454438059733,0.04003813458164148,0.0005231089131089733,0.03951502566853251
1487.7836933937774,0.038301428402915456,0.0009561546239172786,0.03734527377899818
1494.3876771648618,0.007292171331411119,0.00010539284640613237,0.007186778485004987
1494.8835125350556,0.007242904511087316,0.000285168401732932,0.006957736109354384
1496.9182416064061,0.0008810046735248252,0.0006427609525478787,0.0002382437209769465
1498.2013571812265,0.0030690800257633663,7.31175526720035e-05,0.002995962473091363
1500.109201975187,0.005220823098440292,0.00021872268474210291,0.005002100413698189
1504.031371932933,0.008033398507039071,2.0857644764802984e-05,0.008012540862274268
1545.7428750755325,0.001997489730781978,2.5101217817166138e-05,0.001972388512964812
1662.0602498670992,0.036156448021911425,8.861629481524012e-06,0.0361475863924299
1683.681545417838,0.13141767876268723,0.013125188723414045,0.11829249003927318
3027.9704816083317,0.31789770158659714,0.21121643297788315,0.10668126860871398
3030.153241158618,0.26726344853754136,0.05796983010121378,0.20929361843632757
3036.870263795921,0.485914467828438,0.3358816081439424,0.1500328596844956
3039.891181250276,0.14369574693683154,0.11560741572889671,0.028088331207934837
3042.5378706316433,1.4179646592697266,1.347442851848861,0.07052180742086551
3043.5999542874047,0.1852737977522096,0.16627356494544746,0.01900023280676212
3045.675920772449,0.5206720474357591,0.49470839149023943,0.025963655945519727
3053.1450100407715,0.9658678539354779,0.9124005939809242,0.05346725995455366
3053.5318093720034,0.4641320976379635,0.36095454345954436,0.1031775541784191
3063.0135055283777,0.43914993127427054,0.01920211418150113,0.4199478170927694
3065.208716175146,0.20605885837935536,0.049657973294779244,0.1564008850845761
3076.910438100983,0.43352679425087315,0.22474962665561127,0.20877716759526185
3079.224366657799,0.869252183481986,0.4548234417803583,0.4144287417016277
3088.9115774711217,0.09617094536134943,0.0684173841834766,0.02775356117787283
3092.6048244661297,0.06620812544266837,0.0022097198160557197,0.06399840562661264
3096.258595349286,0.2745034692876198,0.0505729168281398,0.22393055245948
3102.286976568047,0.041507130303099625,0.0029504816615019873,0.038556648641597635
3116.601314863094,0.28774152891907756,0.065101341238603,0.22264018768047458
3127.05221494288,0.2187325487002015,0.0176450691663548,0.2010874795338467
3181.3056783605593,0.19514600533269616,0.06302265191945482,0.13212335341324133
3185.5055905983713,0.2548500611891107,0.017710150660928993,0.23713991052818167
3197.9618026587686,0.5725055431017633,0.1751214211825929,0.3973841219191704
3206.281813082524,0.18591746324173614,0.000425742090988114,0.18549172115074802
3218.983150232542,1.3928034592482992,1.131600237920044,0.26120322132825513
