frequency_cm1,total_intensity,isotropic_intensity,anisotropic_intensity
3.473215181330774,0.0,0.0,0.0
3.005910571108155e-05,0.0,0.0,0.0
2.6862316602562968e-05,0.0,0.0,0.0
9.856690836396613e-06,0.0,0.0,0.0
1.286967348539128,0.0,0.0,0.0
1.450062771174723,0.0,0.0,0.0
15.944915120354098,0.000602987786522868,7.4971060307843904e-06,0.0005954906804920836
30.618433842452202,0.0008956570197286189,1.0090691392229556e-06,0.000894647950589396
35.36924442088279,0.00021997143357758707,2.6251521032106206e-05,0.00019371991254548085
38.5518229481533,0.0001573363188281937,2.530858305363693e-06,0.00015480546052283
62.490121958826975,0.002328985154936745,5.485401426441025e-06,0.0023234997535103038
86.98655885071402,0.000888893762145091,9.990128482509143e-05,0.0007889924773199996
99.24663207269272,0.0005533144773535613,0.00025987447940334693,0.0002934399979502144
108.60780531402547,0.0002771862483653738,2.389782642100961e-07,0.0002769472701011637
117.32701058337751,0.001400965728975421,0.00022473424750865507,0.0011762314814667658
148.70530221710925,0.0001920341058406648,0.00012942408429449293,6.261002154617184e-05
159.8689521316545,0.00019705517786415886,2.108909710436207e-05,0.00017596608075979677
174.89679303351375,0.0013748579009867105,0.0011084756602058883,0.00026638224078082227
182.97822424854047,0.017768059592514485,0.01127839934726946,0.006489660245245027
199.6201586827489,0.0009533792409009233,0.0002826701573082725,0.0006707090835926508
222.7250283832022,0.001461624317294822,0.0007959751082686352,0.0006656492090261868
246.11709415076416,2.1394753551114403e-05,1.4241408440879087e-07,2.1252339466705613e-05
280.219309667141,0.0006104323501027172,0.0004958090727453212,0.000114623277357396
313.5031729089382,0.0007946852619544365,0.00017261061873116623,0.0006220746432232702
357.5243653136519,0.0007088994458717341,0.00015538703381586005,0.000553512412055874
387.98476330121133,0.0007020550187288606,0.00016870456391794767,0.0005333504548109129
442.3255736769077,0.0009096320479499316,0.00027520195660531545,0.0006344300913446162
490.09256681533293,0.0041754647545516515,0.0022289226956558237,0.001946542058895828
530.469259451183,0.005572172172030106,0.002808735199780248,0.002763436972249857
595.1073053556404,0.005054070053304846,0.0029718455777819268,0.0020822244755229194
668.8434767831392,0.013952266906402177,0.007668318765741149,0.006283948140661027
729.2519676809837,8.873245960097214e-05,1.669834568557298e-07,8.856547614411641e-05
736.2170035660824,1.3666462822231384e-05,7.145800541178223e-07,1.295188276811356e-05
759.2370554982333,0.0002778488860998588,4.2770201185274707e-07,0.0002774211840880061
802.6497300416755,0.0023912443891919064,0.00010256915514057451,0.0022886752340513317
804.8308269282397,0.0005072036431672484,4.252283245347516e-05,0.0004646808107137732
874.3134019690096,0.0007615618284218529,0.00037469025132168303,0.0003868715771001699
890.4281023445396,0.03747230046090505,0.02797088411197306,0.009501416348931988
908.1394478475049,0.03285903971926936,0.01887091886805873,0.013988120851210631
909.5817099816126,0.014955382604057618,0.013282534283116536,0.0016728483209410817
940.8523758020568,0.013172359044722848,0.0011248862413404906,0.012047472803382357
957.114146816992,0.00013332422954055146,5.018936373623763e-06,0.0001283052931669277
1013.5009637413652,0.004110347772949997,0.0007748951006887814,0.0033354526722612155
1023.2909778437604,0.0037179565323585853,0.0022734160881681628,0.0014445404441904225
1033.939398628099,4.619102397803187e-05,4.39282887645702e-06,4.179819510157485e-05
1054.976439841636,0.026181659190034214,0.014936896322673776,0.011244762867360439
1069.479334262003,0.028124269703894145,0.0029539006273466115,0.025170369076547534
1071.5171417961835,0.016092971879686547,6.868156260026367e-05,0.016024290317086284
1088.8530957748978,0.010786523512812767,0.004792364443038633,0.005994159069774134
1091.566612491433,0.04315577791808008,0.002516425736291795,0.04063935218178828
1107.0597515534857,0.013548119732106838,0.00569325939437055,0.007854860337736289
1109.1576299270184,0.01198359972775115,0.004160306483122498,0.007823293244628653
1135.245368019434,0.014138625678961136,0.005965556419571019,0.008173069259390117
1157.7819605707105,0.1588873779019692,0.10153312727157891,0.05735425063039028
1190.3753357500534,0.003114930615768228,2.0371386634534997e-08,0.0031149102443815938
1220.570919669469,0.0039801900233771784,1.5937557300731377e-06,0.003978596267647105
1228.820354222214,0.008191922040546005,0.0018373746664882928,0.006354547374057711
1241.8144944025155,0.0001565307511325839,5.107807957586299e-06,0.0001514229431749976
1259.5201768606921,0.011803002639601625,0.0016515578641404767,0.01015144477546115
1262.3442233445237,0.0017636722251421263,0.00021396057113188944,0.0015497116540102369
1287.7504690109515,0.0009035974550167518,0.00016990727508464835,0.0007336901799321035
1298.4173269994947,0.007496633692636357,4.167962946288266e-07,0.007496216896341728
1302.2968173993054,0.015616893111550345,0.002963479610784701,0.012653413500765645
1318.5882248169216,0.020883967543319427,2.3785685794884175e-05,0.020860181857524543
1328.1040434167826,0.06556523383536488,1.8387249582864e-06,0.06556339511040658
1334.421410296927,0.008193114282061976,5.3890519455743555e-06,0.008187725230116401
1335.7732238270792,0.0008930833506586274,0.0007217946858970024,0.00017128866476162502
1339.0544858335122,0.0006363930157785186,1.3034291682121547e-07,0.0006362626728616974
1376.216191181965,0.0013850580839074968,3.5389871820842105e-05,0.0013496682120866547
1380.855796116983,0.004374754824160715,0.0002720748930349773,0.004102679931125738
1400.5974771575015,0.004182730601264831,0.0008695643869985951,0.003313166214266236
1411.3570021276437,0.0009471447781036559,0.0002638627307272979,0.0006832820473763579
1413.8738178816395,0.001605442075562122,0.0006500018751760291,0.000955440200386093
1416.5305706689635,0.0012328649219258705,0.0002960479420354877,0.0009368169798903826
1421.7667063924812,0.009164515823496961,0.00011061071937244933,0.009053905104124512
1440.4045903229603,0.009233762908118993,0.0009665242904320832,0.00826723861768691
1462.2038721565891,0.022041842018673867,0.00013509403884297874,0.021906747979830887
1480.8490792448138,0.003826379575147773,0.0013013656369734571,0.002525013938174316
1482.0401737159607,0.025825559937111418,0.0012380886257364883,0.02458747131137493
1483.636222006362,0.03913421119261585,0.0012630505518976187,0.03787116064071823
1485.0196676287355,0.10983059679197998,0.006197313246459442,0.10363328354552054
1489.1047251873124,0.001438155693346021,0.0009437697223526242,0.0004943859709933968
1493.9426033205955,0.02681317584731278,4.874491484445367e-07,0.026812688398164336
1494.2811707833341,0.035998427426060464,0.002145518199227507,0.033852909226832956
1495.4620538700503,0.014825698676187604,0.0003554058636965858,0.014470292812491018
1499.7828831252855,0.001181431713438165,0.0003664108818994949,0.00081502083153867
1505.3294437068848,0.0018083128496936493,8.890535788107336e-06,0.001799422313905542
1505.6356828863911,0.015689274953491678,2.3763330542518947e-06,0.015686898620437425
1511.1048000540204,0.002401186062298403,0.00024082190978450766,0.0021603641525138953
1813.3816770405963,0.02326713874976549,0.017350056299957884,0.005917082449807605
3023.902896887685,0.2465329831235582,0.2281114975372064,0.01842148558635182
3026.29875577935,1.1310205661008554,1.1036461876306467,0.027374378470208682
3028.199037802353,0.6411025974497362,0.611738987888315,0.02936360956142116
3036.180594464836,0.05905765766763579,0.04945324688108579,0.00960441078655001
3041.9481125138445,0.5100021223306512,0.4752273285310732,0.034774793799578096
3046.681131191454,0.8702120442078648,3.606279125867916e-05,0.8701759814166061
3050.159601487471,0.8629751564042031,0.8557843507544727,0.007190805649730348
3053.1465860717262,0.026529092508587166,7.082925642596691e-06,0.02652200958294457
3053.9193934471814,0.751378879712683,0.7193825650292847,0.03199631468339835
3057.490288179453,0.6330395037639636,0.6191683166980115,0.013871187065952056
3063.4910932313383,0.1915037644305684,0.06177321354344679,0.12973055088712163
3064.1598395300207,0.21268569237383178,3.053820455562835e-05,0.21265515416927616
3071.018552775027,1.3575028032755825,1.2803871164014404,0.07711568687414204
3073.4226298053823,0.1376556865972328,0.1260930276953338,0.011562658901899009
3076.299086611279,0.011402055880054945,0.00013844545913157367,0.011263610420923371
3086.6160972078374,0.1218672213655149,1.3121244025789203e-05,0.1218541001214891
3096.433169250396,0.12110129360674729,0.00020777574073454865,0.12089351786601274
3101.501908893184,0.5219488885167901,0.007662039919631351,0.5142868485971588
3111.0004758056148,0.11752560565175213,0.02238329205354017,0.09514231359821196
3113.15606262631,0.12944602689780413,5.286590674797303e-06,0.12944074030712932
3121.4687035909656,0.40788789848978396,0.06267660594684471,0.34521129254293925
3124.884643545477,0.0539287835008721,0.0008163350341965283,0.05311244846667557
3125.731396893362,0.18911127898358432,0.0445246238263362,0.1445866551572481
3134.008403750234,0.21075227550358752,0.03478188441614163,0.1759703910874459
