frequency_cm1,total_intensity,isotropic_intensity,anisotropic_intensity
1.8821523972684073e-05,0.0,0.0,0.0
8.136116308642743e-06,0.0,0.0,0.0
2.1308140397756412e-05,0.0,0.0,0.0
0.6293696201774557,0.0,0.0,0.0
1.2030180745808594,0.0,0.0,0.0
2.9727992228676006,0.0,0.0,0.0
27.64600752253093,0.004457301737083957,9.189385478418076e-06,0.004448112351605539
40.981888551614865,0.0030820786534233517,0.00026945814641155403,0.0028126205070117976
49.903026202447336,0.0012693465727516185,5.40937508426088e-05,0.0012152528219090096
68.19094638673171,0.002232250772622895,0.00017928195624455768,0.0020529688163783374
76.17058408247918,0.0009098386522573235,8.863171588673736e-07,0.0009089523350984561
85.23260166285536,0.0016096920771333741,0.00014977390432546148,0.0014599181728079127
93.16598419918093,0.0007209036396340794,8.616670209246397e-05,0.0006347369375416154
119.81669490266523,0.001972379646945696,4.370138517564308e-05,0.0019286782617700528
126.9485373098816,0.0010230688531440836,2.6345141767027096e-05,0.0009967237113770566
197.2051693014864,0.0009324592208849936,9.491827250109534e-05,0.0008375409483838983
206.87345494855646,0.0007873695019238834,4.630356318271178e-05,0.0007410659387411717
229.3320295012593,0.0008747438646896701,0.0006590359299469666,0.0002157079347427035
239.46743812998506,0.007998199280334762,0.007662875940973852,0.000335323339360909
242.1151289871383,0.0008365012030959489,0.0005907778707199472,0.0002457233323760017
246.9676231969004,0.0033057417700590843,0.003077927081847871,0.00022781468821121296
263.5390637103567,0.016099315440346637,0.014217891094223554,0.0018814243461230831
300.84640129251966,0.0018406292723709113,5.0886069900877825e-05,0.0017897432024700335
362.94814082008867,0.004196505720652251,0.0017034185687571546,0.002493087151895096
399.6903518272196,0.006179818336626651,0.00014463488265059537,0.006035183453976056
411.1542757660318,0.003182073685091889,0.0014000517607241293,0.0017820219243677598
442.6836096064462,0.0029347303019231323,0.00018990466360799125,0.002744825638315141
499.0922558611891,0.010719674191660842,0.00782171366242421,0.002897960529236631
548.1249787573262,0.004556863784907575,0.001069359814819183,0.0034875039700883923
682.1941115631631,0.03315848211679036,0.031159410958293967,0.0019990711584963877
691.9265657578744,0.021781026685718415,0.019070340620296923,0.002710686065421492
730.482525527636,0.004428093238622238,8.553230068428981e-05,0.004342560937937948
739.6585629152391,0.0008373784873670489,0.0005348013271588687,0.0003025771602081802
761.7262449744328,0.09285398492910249,0.05338987255154142,0.039464112377561075
791.7684397837783,0.004015467499903861,0.0009921049866453474,0.0030233625132585137
796.9253941500989,0.005335357480542431,0.00022700052447530147,0.00510835695606713
856.4234001956536,0.003969765613176662,0.0002895835976846008,0.0036801820154920614
910.1852852714255,0.016726152841507094,0.007787273460614577,0.008938879380892516
920.6377298768435,0.017503243994018296,0.014105930977093813,0.0033973130169244847
923.2259535589445,0.03571985915001083,0.02260220451683937,0.013117654633171456
963.1207049397811,0.005242029164851244,0.0012258782573573751,0.0040161509074938696
993.4172402213201,0.01779471328043364,0.002359909992851458,0.01543480328758218
1047.249486723373,0.0011309368222704923,0.0002912951935024449,0.0008396416287680473
1059.3101075193824,0.06030264113948797,0.02229727926199961,0.038005361877488354
1083.5971891414201,0.040458351886761626,0.008070357605598292,0.03238799428116333
1094.1726471363488,0.003464229011747842,6.012535782371849e-06,0.0034582164759654702
1104.7197426747157,0.02045473630495026,0.01760635783230137,0.002848378472648889
1120.2578902748985,0.028757710633068728,0.021291201894938133,0.007466508738130593
1125.2443864976208,0.004519199586820465,0.0004900661191243959,0.004029133467696069
1140.7807830315178,0.0601544684550715,0.042812661482591094,0.017341806972480403
1158.9038062037769,0.010597144900561892,0.0025304595603865615,0.008066685340175331
1237.1499982847201,0.005212840471659138,0.0008932907071269593,0.004319549764532179
1256.8513660452593,0.0020862151241179757,0.0004065695172418028,0.001679645606876173
1276.3849352290526,0.018874198017131867,0.006534087855921522,0.012340110161210345
1282.7642972753965,0.009174025627701,0.005935077216547824,0.003238948411153175
1292.6610995226183,0.0007150775124930638,2.4883222717178826e-08,0.0007150526292703466
1303.536388627938,0.014305512969806032,0.0030226502538262755,0.011282862715979756
1328.6779380759046,0.03614880177712956,0.0021158664175980418,0.03403293535953152
1331.8670021400055,0.03998585403767536,0.0002822451300333657,0.03970360890764199
1351.239140783466,0.007089322252864988,0.00026445761958281285,0.006824864633282175
1378.0727156554244,0.021900382909664468,0.012619074480557211,0.009281308429107257
1382.6413602233958,0.00578604156409189,2.0646401512745207e-05,0.005765395162579145
1394.6298002398914,0.0025962079275941704,3.8146825043770654e-07,0.0025958264593437326
1412.8216832215408,0.0024636938132250423,0.0015354713510347783,0.0009282224621902638
1413.0599131802703,0.005182746351191632,0.0021134525678566454,0.003069293783334987
1414.3857011557184,0.0036427898150017354,5.688406022577008e-05,0.003585905754775965
1419.579162331145,0.011488509178065723,0.0026201414186277907,0.008868367759437931
1441.5080865802397,0.05967193613039925,0.01469440819997069,0.04497752793042856
1453.0863923749528,0.011506047334456536,0.0008399228559299105,0.010666124478526625
1475.699026735237,0.03381176918168206,0.00638140172522634,0.027430367456455718
1483.8651152263992,0.06396618735438726,0.0012852361985100178,0.06268095115587724
1485.0837843054871,0.026780440989090284,0.004311200383472569,0.022469240605617714
1487.7820431676655,0.04714587441647906,0.005016159261798146,0.04212971515468091
1493.1612522155199,0.012202929314299553,0.0031582468000164346,0.009044682514283118
1494.579500752277,0.02830540776949783,0.00012676476121019323,0.028178643008287638
1494.5870564140994,0.020447569699315663,6.453121055770664e-07,0.020446924387210085
1496.2001206465118,0.05114238246605669,0.006169535790024126,0.04497284667603257
1500.0188936381655,0.00639423585952595,0.0017745881830661466,0.004619647676459804
1504.8246861936477,0.0023109182853421756,0.00018731706944995135,0.0021236012158922244
1513.4393359440298,0.037471888216542466,0.009406705430695031,0.028065182785847437
1726.9752157423525,0.038085726483675725,0.024103049173079386,0.013982677310596343
3036.606428358927,0.8021627108815602,0.7442434148078789,0.05791929607368126
3041.3202210483832,0.07234113152125171,0.008591905083406268,0.06374922643784545
3051.5124375019122,0.08788837981862425,0.07327441922737062,0.014613960591253637
3051.552501318095,1.6868919628587289,1.6618568274725776,0.025035135386151288
3063.906572168438,0.4636971514570408,0.440882307318939,0.0228148441381018
3067.0379901389592,0.6957093193189663,0.3284052593830853,0.367304059935881
3067.785685077515,0.6356069034521814,0.5250088021427551,0.11059810130942622
3071.4648095975253,0.14374990198003906,0.01011113489132124,0.13363876708871783
3077.1324530921506,1.0747764072669845,0.9288250257703928,0.14595138149659168
3087.057624340483,0.683722107502913,0.5088364179195587,0.17488568958335432
3095.1966263688023,0.007406957707565107,0.002232353053992355,0.005174604653572752
3105.8586851261534,0.35496950873111277,0.004672590624335163,0.3502969181067776
3115.9537657607525,0.14932102627426858,0.0036876982824689403,0.14563332799179965
3117.0351436789897,0.2751838779050227,0.00010727774458475153,0.27507660016043795
3124.151836944576,0.4233771239337735,0.06984555726778878,0.35353156666598473
3125.5719576935844,0.03471197603311813,9.225148170218347e-05,0.034619724551415945
3128.290832314202,0.3972312852829126,0.059954265795222804,0.33727701948768984
3134.374565381616,0.1487811222589296,0.009417017547089726,0.13936410471183985
3136.934925203361,0.20830375686264124,0.07836391512573392,0.1299398417369073
3146.785281070929,0.1336773143586607,0.004821239595819137,0.12885607476284155
3149.2148365474395,0.11477358705480346,0.006535080552523502,0.10823850650227997
