frequency_cm1,total_intensity,isotropic_intensity,anisotropic_intensity
1.4115286746157716,0.0,0.0,0.0
0.8013116952263483,0.0,0.0,0.0
0.6748376176852979,0.0,0.0,0.0
1.4934972873944143e-05,0.0,0.0,0.0
5.369162563227802e-06,0.0,0.0,0.0
2.03357488049539e-05,0.0,0.0,0.0
10.147946811136524,0.0023122122880008204,3.6262903140268456e-06,0.0023085859976867936
14.534065491410171,0.0027784980049757454,2.4421805395160973e-07,0.002778253786921794
19.2075353060995,0.0011264392975301961,2.520649534158629e-07,0.0011261872325767804
25.603647896203476,0.0013161366217000136,5.100623933620095e-07,0.0013156265593066516
30.95497327531293,0.0009185482362164637,7.2000422413535e-06,0.0009113481939751103
35.57301960145247,0.0007874211885318341,8.829415399917513e-07,0.0007865382469918424
43.00135285392621,0.0009161013774343184,9.115232585313352e-07,0.000915189854175787
54.45650705500179,5.851020264391183e-05,2.364888665570438e-06,5.614531397834139e-05
58.2519852233363,0.0003504473166822105,9.594232160060075e-05,0.00025450499508160974
72.69567937623901,0.00040819162701030394,6.824455447294658e-05,0.00033994707253735736
85.98184222758577,0.0005250610126253654,0.00017126649258466015,0.0003537945200407053
97.06270056381007,0.0003803828606371348,1.8775689883012475e-05,0.00036160717075412233
103.95146683048885,0.0001909685275319482,7.707796189949572e-05,0.0001138905656324525
108.83691938222447,0.0007288549758216716,0.00049069223179705,0.00023816274402462163
120.45523928461914,0.003955161672901148,0.0031966715126197053,0.0007584901602814421
125.79762998387635,0.0007811638488844875,0.00043921021315099007,0.0003419536357334974
135.02135224617436,0.005457232665229578,0.004382079283344925,0.0010751533818846532
147.83364063962006,0.00048463863042096886,4.2728170188399696e-07,0.0004842113487190849
153.50872791570168,8.178221279008526e-05,9.554806400378671e-07,8.082673215004739e-05
156.02450435818645,0.00023063949172895788,8.024455486669275e-05,0.00015039493686226513
160.624916946496,0.000172849430131974,4.613849390623372e-05,0.00012671093622574028
167.20702545116518,0.0002471488040185709,0.00012138733493081883,0.00012576146908775207
169.20749362091755,0.0020807243594924228,0.001643394769221656,0.0004373295902707665
181.77067972297564,0.0006213278322721725,0.00018715114034370116,0.00043417669192847137
184.64844221337435,0.004052988101041252,0.001582005694701169,0.0024709824063400836
224.748523718739,0.003154543438065923,0.0016882239330546893,0.0014663195050112336
229.96065102883793,0.003265570766860719,0.00014350482517578434,0.0031220659416849347
245.7890877889325,2.5117557470294106e-05,2.312659282730713e-07,2.4886291542021036e-05
260.35139027630265,0.0027952658304477005,0.0006632453789873165,0.002132020451460384
262.83635887287323,0.004955941212045059,0.000402639019869494,0.004553302192175565
290.09354219853935,0.0029029922890040083,5.577824157559273e-06,0.002897414464846449
322.44770233538867,0.007903215190872406,0.004800207267417211,0.003103007923455196
327.98174134467575,0.0044944333305242095,0.0014531683244133153,0.003041265006110894
349.5692771889329,0.004394262560103324,0.0026733669561205793,0.0017208956039827445
391.2396203165632,0.0038606596084652246,0.0020283932443041644,0.0018322663641610602
414.66237916237765,0.0006417224164698822,4.497947421452474e-09,0.0006417179185224608
444.5393532256,0.00116972161302381,0.00030721720472190494,0.0008625044083019051
458.2700455400015,0.00033907001396453045,1.3338942424678456e-06,0.0003377361197220626
482.06884563850554,0.0022849749008442407,0.0019289891414263859,0.00035598575941785495
504.47180552937175,0.005764260813459163,0.0036404667317651096,0.0021237940816940535
530.7357131115915,0.004941798176870358,0.002426379541700637,0.002515418635169721
539.1495881752688,0.001891688943693622,5.439325414778543e-05,0.0018372956895458365
587.40230950964,0.0011000116555659782,3.1730827482316896e-06,0.0010968385728177465
649.8609070741277,0.007429915866089165,0.0003950476740688718,0.0070348681920202934
709.1656222075322,0.005750624397201405,0.0004460228801229848,0.00530460151707842
728.6896803151255,9.184398529541348e-05,3.441700454628092e-06,8.840228484078538e-05
730.9978436915716,5.769694256269947e-05,5.404348833231847e-08,5.7642899074367156e-05
734.2415022835262,0.0002391175191644478,2.7946793754432976e-06,0.0002363228397890045
739.4167438505172,0.0005934252022346877,1.1294505156753183e-05,0.0005821306970779346
753.5643100807902,0.0003740334498124454,4.166539674586687e-05,0.0003323680530665785
770.2626972783655,0.0007244065907035243,0.00024129766428874748,0.00048310892641477687
796.9633323149204,0.0020342760060165785,0.0007169140754143856,0.0013173619306021931
826.5261947419071,0.005276731987026746,0.0032855829650956835,0.0019911490219310622
856.6751923189637,0.010388385037155811,0.009406487655099393,0.0009818973820564189
877.2165138128742,0.01818354026873956,0.015400811820861834,0.0027827284478777253
907.2792204789997,0.033022618854676486,0.018836262274960384,0.014186356579716102
912.1809236584584,0.0457377996676686,0.031661337126373874,0.014076462541294724
913.093374054217,0.005704017526376072,0.002572267979279212,0.00313174954709686
941.7993776948734,0.004733506929603584,0.000559602534117537,0.0041739043954860475
972.9991799854174,0.002659567033938606,0.00019379315450923564,0.0024657738794293706
1010.2216594454849,0.004621942158184352,1.455493221527797e-05,0.004607387225969074
1015.8533604339926,0.0038779031619642352,0.003369181900260732,0.0005087212617035032
1017.446668213108,0.012150017565106686,0.002361416107819214,0.009788601457287473
1032.2569832633387,0.0026095610927109863,0.0018478045189777219,0.0007617565737332643
1034.127020979769,0.001559726084928055,9.5368067344315e-05,0.00146435801758374
1042.965131100421,0.004775987441886181,0.0023638639867312344,0.002412123455154947
1048.5208871197867,0.01079452555255991,0.0001409955656323521,0.010653529986927559
1058.136989090141,0.01284520719432837,0.007813543883975604,0.0050316633103527665
1067.7995497074119,0.009637900661135986,0.0008768571230713892,0.008761043538064596
1077.2439879414192,0.05983360102456459,0.0231350170601181,0.03669858396444649
1085.1937384539813,0.010134859044219598,0.005591477345297532,0.004543381698922066
1085.5579759454263,0.007157342060251849,0.0011506842250165635,0.006006657835235286
1090.4774363943245,0.03207707118332854,0.000501206830299569,0.03157586435302897
1090.8257283531711,0.06972392497183452,0.004134687490151659,0.06558923748168287
1091.6755871892503,0.013923835999573735,0.0010183838330225378,0.012905452166551198
1107.132528406732,0.018855213312846404,0.009185003961938224,0.00967020935090818
1112.5454686108737,0.034202675049254415,0.004186833225552463,0.030015841823701952
1127.8902783663314,0.01782129883265044,0.0029136967604250852,0.014907602072225355
1131.4885042637222,0.1771074328456499,0.11735130402568912,0.05975612881996076
1141.3085007807454,0.006325073785127299,0.0031749700704973385,0.00315010371462996
1151.7851436392912,0.05387085532506157,0.03238273444513033,0.021488120879931242
1176.0410682519075,0.037108693895986394,0.005289980238011624,0.03181871365797477
1177.7925931439418,0.003483087431783099,5.382075422868799e-06,0.00347770535636023
1201.299093111686,0.0073861835201096,0.0030405414824907035,0.004345642037618896
1210.133869476905,0.010364105471376889,0.001017413557060458,0.00934669191431643
1218.5432348563959,0.0039867125391113475,0.0009887324366490034,0.0029979801024623445
1229.6046131019002,0.018331236174660988,0.012774720069825895,0.005556516104835094
1237.5470555475224,0.00366102825468977,1.3416037839086976e-05,0.003647612216850683
1243.3489886528641,0.0044927067527499144,0.001593490520199614,0.0028992162325503002
1246.252883281014,0.005747483405869299,0.0010648195878566048,0.004682663818012695
1247.0487625416156,0.00890314157602986,0.0006191558869021623,0.008283985689127698
1275.24960206351,0.0047021046992991745,0.000353382609809978,0.004348722089489197
1278.8916742152082,0.004513169213929777,0.000552084994932225,0.003961084218997552
1284.9211726746746,0.0015931856539617224,0.00023540598320233194,0.0013577796707593905
1289.5864900227261,0.006306577902877771,2.284318554721959e-06,0.006304293584323049
1310.1354237799364,0.0019915900242949494,0.0007182121272061064,0.001273377897088843
1315.458078674172,0.008828539054804213,0.0001449227198249303,0.008683616334979282
1319.0392554738953,0.0015229229163014237,6.657216461726918e-05,0.0014563507516841545
1327.258361463294,0.04932727333639371,0.0002473580296823294,0.04907991530671138
1327.7214567427827,0.03191462047104964,0.0008725403251586105,0.031042080145891028
1330.8088669195106,0.08437251329906381,8.17288663957107e-06,0.08436434041242424
1331.8717399740838,0.010943426799612464,0.0003723914395561087,0.010571035360056356
1336.485242808208,0.00045831041743006444,2.899810783728223e-06,0.0004554106066463362
1336.9384946615264,0.005180944616137986,6.69924426786071e-07,0.0051802746917112
1343.1236131003623,0.011867905440380565,1.3394071059652267e-05,0.011854511369320912
1344.5563877774794,0.012486664702561016,0.0014306407533601405,0.011056023949200876
1353.1991596223802,0.006594306202926733,0.000755845596848829,0.005838460606077904
1367.5355499228629,0.0023613334342788856,2.011609967176056e-05,0.002341217334607125
1378.437990817272,0.01566883270487848,0.00036512224863860456,0.015303710456239874
1396.2481884614772,0.007213364953294724,3.396327034037913e-06,0.007209968626260686
1400.4452098975808,0.0021809979101276703,0.0002837171746398063,0.001897280735487864
1411.957277742817,0.0013518722961065699,0.00016431574268294688,0.001187556553423623
1414.5462802034533,0.009820341495269853,0.0019598789749116006,0.007860462520358252
1417.5003927815728,0.016152196338206377,0.003663118166537315,0.012489078171669062
1419.52546854456,0.0014151214739064643,4.305445984151996e-05,0.0013720670140649443
1421.2759057583166,0.007340144535757888,0.00028193068421887964,0.007058213851539008
1425.9206019743385,0.004573383545535804,0.0009576583697107661,0.003615725175825038
1428.0466470400688,0.009424911564274656,0.0004878726858863043,0.008937038878388351
1440.1585872632618,0.0071101279533829385,0.0015584526655820056,0.005551675287800933
1460.4414850277528,0.015931786579426704,1.7083664298986563e-06,0.015930078212996805
1475.0433366274356,0.008235396689955633,0.0020442505110136408,0.006191146178941993
1475.9554747168445,0.02713737840997063,7.922013314958176e-07,0.027136586208639134
1479.2812888281223,0.0028153964650231515,0.000254363519916027,0.0025610329451071245
1481.233882423722,0.0013209381108680194,0.00021914006387497342,0.001101798046993046
1481.340298012387,0.0016999804892089867,0.00030635686276420066,0.001393623626444786
1481.6378038938333,0.004797082579682051,0.0001006472756566477,0.0046964353040254035
1483.0276347018953,0.10530629225551186,0.009430785788868547,0.0958755064666433
1484.8262390474877,0.13321705146774823,0.005835669167823509,0.1273813822999247
1485.3500907971263,0.020439897671797595,0.0011081619268179387,0.019331735744979657
1487.7054345054748,0.010630798896200009,0.0005843207938022577,0.010046478102397751
1490.1818886828287,0.012872445312230012,0.0001418237305069907,0.012730621581723021
1491.4967287712964,0.02200254051484273,4.6260030257563146e-06,0.02199791451181697
1493.804135076138,0.027287610505888488,8.078756694861543e-08,0.02728752971832154
1496.6287839304766,0.004390296776255705,3.636012745627479e-05,0.00435393664879943
1496.9859011838748,0.0024948240224166762,0.0004260761780593877,0.0020687478443572886
1502.7126214201405,0.001353867396110638,0.00014021052514066453,0.0012136568709699735
1504.6557867594302,0.0013924124144077243,0.00041165126133371657,0.0009807611530740076
1506.2354995352891,0.0015676967559251588,1.0582935027872502e-07,0.00156759092657488
1819.4432067959874,0.030350349203555005,0.020784805142395838,0.009565544061159165
3019.480892017614,0.21632878845524392,0.034546220913724085,0.18178256754151983
3021.297361164776,0.018117602142470067,0.002535040568242217,0.015582561574227851
3023.2293476688674,0.4163101921902653,0.3731019900849677,0.04320820210529763
3023.585408376807,0.2836040742244017,0.26851957735954024,0.015084496864861446
3024.3351107617004,0.1441239925359554,0.12612228180940502,0.01800171072655037
3025.3408824526987,1.5714703783388932,1.4974223369692248,0.07404804136966842
3026.393503233933,2.14567223871737,2.1201803042569463,0.025491934460423672
3028.185386505704,0.16789609969265643,0.16461218260191687,0.00328391709073954
3032.576698052468,0.03221780109464217,0.022291261019719323,0.009926540074922847
3038.2051323405335,0.013395787840441521,0.0084976458063144,0.00489814203412712
3040.202539295353,0.6694470004088573,0.6237529420678497,0.045694058341007586
3042.14858832568,0.03948918942920489,0.005043506602616628,0.03444568282658826
3044.0714168261393,0.8883284877259253,0.011933258655038562,0.8763952290708867
3048.358427321847,0.7744676119074975,0.0002845460555518383,0.7741830658519456
3048.822203535192,0.01540089059217056,0.014608825783856933,0.0007920648083136259
3049.989625792761,0.3643235816770411,0.357511359415574,0.006812222261467087
3050.15472318073,0.8736632407932843,0.8665600262659624,0.007103214527321861
3053.546960955817,0.10455711429200218,0.08726036375815666,0.017296750533845516
3059.6508491696536,0.17814530853364285,0.013875914432002086,0.16426939410164076
3060.2716323360023,1.0539637144067435,1.0274875664299663,0.026476147976777137
3067.0420433794907,0.06792080057246586,0.021635222225199712,0.04628557834726615
3068.65561422353,0.023306411565520303,0.0220025442518927,0.001303867313627605
3072.4744979270986,0.03213827901753084,0.020729001833188508,0.011409277184342327
3081.585104871849,0.2021158423649626,0.03476596809003895,0.16734987427492365
3083.7828844919836,0.7662385421752549,0.7572455975838002,0.008992944591454702
3084.603706211392,0.04432825688723653,0.028689771486385594,0.015638485400850936
3085.4039353897415,0.3236325919889095,0.16358868969798476,0.16004390229092474
3088.051200164829,0.033743046699032914,0.030007850524793905,0.0037351961742390096
3092.0761828042996,0.25090403572711933,0.001219634892319727,0.24968440083479962
3102.8375125358525,0.04893921388579031,0.007892649532756552,0.04104656435303376
3110.05848820406,0.12774506704949903,0.10620066640729381,0.021544400642205218
3112.505055594918,0.0010180747547112428,2.5244874823004666e-06,0.0010155502672289424
3113.090886740299,0.1289487504490149,2.787206219679343e-05,0.12892087838681812
3121.3258562298893,0.41220553206235144,0.06329491356429764,0.34891061849805377
3154.823280929526,0.2188856827958416,1.2719376524524114e-05,0.21887296341931708
3188.681999274597,0.3703464662416928,0.05289205297787753,0.3174544132638153
3859.9276992020755,0.20161952626427243,0.16808906749047525,0.03353045877379718
3879.8390235520656,0.3702551051559788,0.23990866625449295,0.13034643890148584
