frequency_cm1,total_intensity,isotropic_intensity,anisotropic_intensity
2.7266975611545963,0.0,0.0,0.0
0.9235811521224656,0.0,0.0,0.0
0.857996596003879,0.0,0.0,0.0
2.261994320672879e-05,0.0,0.0,0.0
2.124681461930846e-05,0.0,0.0,0.0
3.2725654398135184e-05,0.0,0.0,0.0
7.553935300470175,0.00032340172163844276,1.2629356827215644e-06,0.0003221387859557212
12.051213487767198,0.001685668743036506,3.277734852183902e-06,0.001682391008184322
16.430101099276488,0.0005723385059718431,3.49697356580223e-06,0.0005688415324060409
19.615812969711932,0.0009481193383699926,6.979946458706229e-06,0.0009411393919112863
34.72349725241747,0.0006540233067626782,3.561334377716208e-05,0.0006184099629855161
38.3027842666467,0.0008119350552245109,1.1396116792956978e-05,0.0008005389384315539
45.242584184637934,0.0006231447536256088,1.521976716417553e-05,0.0006079249864614333
57.10028250511643,0.0010523547573208494,0.0001675701031371565,0.0008847846541836929
63.232588766460765,0.00016570586381344708,1.9468448283849586e-05,0.0001462374155295975
71.92398988436689,0.0010046184505049132,6.455757439575109e-07,0.0010039728747609556
74.17933560875501,0.0009218008365681463,0.00011693211740986305,0.0008048687191582833
89.7057568221139,0.00021068842968573477,4.165219111744622e-06,0.00020652321057399014
93.28948043913776,0.000627897140420071,0.0001430083663771114,0.00048488877404295955
102.29210961783147,0.0003833433859778269,0.00014933736823512648,0.00023400601774270047
113.45105986882946,0.01022447194147066,0.007362066006912982,0.002862405934557678
124.83482054846743,0.0003406916894490346,0.00018995586458718294,0.00015073582486185163
128.3874483898727,0.0034242925294984063,0.0017138159127215596,0.0017104766167768467
132.59256464907529,0.00017720830937172162,3.194024787590688e-05,0.00014526806149581473
143.5403018191249,0.00011544105749486246,8.290686796926478e-05,3.253418952559769e-05
153.13009687828375,0.00012504992096090225,1.3275857820195458e-06,0.00012372233517888271
158.0729181347405,1.0046872839683278e-05,3.387718259812471e-07,9.70810101370203e-06
173.71641985149037,2.3120023465018315e-05,2.1149898932071684e-07,2.2908524475697598e-05
175.1322655989918,1.0878475006205508e-05,1.673069492015162e-08,1.0861744311285357e-05
201.23934610161066,0.0003309073208130545,4.615885267341799e-05,0.00028474846813963646
204.91254970796533,0.0005819062465591638,3.668009154304683e-05,0.000545226155016117
236.88768435849386,0.000689328820586342,2.8682469796472286e-08,0.0006893001381165455
244.98890435823085,7.23409717401617e-05,1.8607763368090067e-05,5.373320837207163e-05
245.5946706159231,2.7630374428156304e-05,3.007665429808153e-07,2.732960788517549e-05
268.77889561284064,0.00011649811533289298,6.070457005994013e-07,0.00011589106963229359
321.6782742617512,0.007283651179738299,0.00613542287772101,0.0011482283020172886
329.5138108914281,0.005779383917173704,0.0033630983929333735,0.00241628552424033
361.50484175145976,0.001074132738191771,0.0005399183384007372,0.0005342143997910336
392.9223770974714,0.0017301003974985894,0.00029526640226674425,0.0014348339952318452
420.3467853277288,0.0007785841948127115,0.0006945385382644812,8.404565654823017e-05
441.9957809277165,0.0016566952905161829,0.0002212989426873109,0.001435396347828872
463.0509749184062,0.0010406482973115644,0.0004950920983603011,0.0005455561989512633
500.8696427752409,0.0012434643456052403,0.0003378217504937398,0.0009056425951115005
514.4437788153159,0.0005560679366688635,0.00029163159493812365,0.0002644363417307399
544.5471596836544,0.0032707985027247903,6.685841370743485e-05,0.0032039400890173553
592.0091090533307,0.0006455804299569315,0.00010536524109565359,0.0005402151888612779
706.5844457037449,0.00260002091056719,0.00014499861217487708,0.002455022298392313
727.8860048236194,6.209260268404076e-05,1.314337894614853e-08,6.207945930509461e-05
728.5071024238912,2.841830933070522e-05,3.286187585552835e-06,2.5132121745152387e-05
730.0644117295715,4.5622078110267086e-05,8.117952078440056e-07,4.481028290242308e-05
734.2760273494919,3.508804722017414e-05,5.14408932893152e-07,3.457363828728099e-05
743.7266207585574,0.00016877032871007638,3.492372821126422e-06,0.00016527795588894997
744.1792978463495,0.000764499669848968,7.052234683945725e-05,0.0006939773230095108
760.733080005023,7.115866377111523e-05,8.740658760212915e-07,7.028459789509394e-05
786.140350906791,0.00020361119945662428,2.1028183557885074e-06,0.00020150838110083577
807.2531858310699,0.004722354695915263,0.0014048721288392632,0.003317482567076
819.2283115805918,0.0001734004115763966,5.252645965049211e-06,0.00016814776561134738
857.8433686186054,0.0001670770013538509,5.041956747316659e-06,0.00016203504460653425
900.7634936563836,0.00020772224536381965,1.1792595430370596e-05,0.00019592964993344906
907.4766117576647,0.035052222157893255,0.021645486806250263,0.013406735351642994
908.313111047548,0.024315534887259342,0.014758799689468182,0.009556735197791159
920.9260465577196,0.05923152879841368,0.04341683827555853,0.015814690522855154
945.3642311149284,0.00012779093757744005,1.806161081437463e-05,0.00010972932676306541
964.2440079119993,0.005769639479409964,0.004152768342872945,0.001616871136537019
988.6821664372492,0.0001626679004332476,3.969592221922368e-09,0.00016266393084102566
1001.7324652624624,0.004822660480392518,1.3378987208612422e-05,0.0048092814931839055
1006.2592057119246,0.0019351581672610763,0.001320904719071125,0.0006142534481899512
1015.1986170749205,0.0023928344011845174,0.0019192808830114146,0.00047355351817310266
1028.3059168327263,4.367561407606624e-05,5.92182156987045e-06,3.775379250619579e-05
1031.5561060532582,0.0016886565750597637,0.000498544410321887,0.0011901121647378767
1042.1286660594135,0.004682927124573018,0.001847325662364776,0.002835601462208242
1054.696122590086,0.010741797258555726,0.004281512409023988,0.006460284849531739
1059.6841419138182,0.00013848639708039968,1.908608239448872e-05,0.00011940031468591096
1064.9125771598076,0.0028672797991904876,0.00020096886603860275,0.0026663109331518846
1073.5323083240405,0.002223715334418728,0.00012349718905582088,0.0021002181453629075
1080.8814079856306,0.020407721782859507,0.0043190831296954744,0.016088638653164032
1084.032822856285,0.03716148676026896,0.0005059088784330588,0.0366555778818359
1088.7644888572995,0.10601603927675918,1.6113722183505065e-05,0.10599992555457567
1089.6381121459515,0.005955495847169799,3.599154741801709e-05,0.0059195042997517815
1091.9963858497906,4.8492700364872606e-05,5.097391988121793e-06,4.339530837675081e-05
1092.5932171694485,0.0042785306578158305,3.962624330120145e-05,0.004238904414514629
1098.3518741241994,0.008132660569174967,0.0013763258327898905,0.006756334736385077
1129.469894850172,0.062270796466303305,0.03143446153337469,0.030836334932928616
1142.7102413783864,0.003904760122131878,0.0002586868718449416,0.0036460732502869367
1144.5769985649713,0.05626108806282654,0.041043829472947546,0.015217258589878997
1157.7212117888364,0.27987503392510527,0.1605465213305762,0.11932851259452906
1193.3523311844663,0.005427195123994223,0.001740476581642026,0.003686718542352197
1204.5894024729566,0.009790850005772069,0.0028768898113853934,0.006913960194386675
1204.9317792950314,0.01082076655593419,0.0010465272878207074,0.009774239268113483
1221.0081199580707,0.0010472930266308639,1.0463848124494757e-09,0.0010472919802460515
1221.6992559989126,0.0009481777763283465,9.164466047481907e-07,0.0009472613297235983
1243.4209642194442,0.00047123349764985806,1.2201779642404302e-08,0.00047122129587021566
1244.950543119014,0.0005141887966191792,1.814783495019012e-05,0.0004960409616689891
1266.0593438374062,0.001416439641649487,2.8329749344009196e-05,0.0013881098923054778
1267.157122260432,0.0008260869063795028,0.00020030804177422824,0.0006257788646052745
1270.5301933005583,0.0010649937989170002,0.0006641117296269264,0.00040088206929007387
1287.4148236625188,0.0002415794791253569,4.756697993291544e-07,0.00024110380932602774
1291.327579591576,0.0002812607858216843,4.086455856082215e-06,0.0002771743299656021
1297.398714230072,0.0005069757814631185,0.00023779477457154402,0.0002691810068915745
1305.2842562798403,0.004926790256984345,9.33287584492904e-07,0.004925856969399852
1316.646636918082,0.000489547235726938,0.00028418274280747467,0.00020536449291946328
1318.8831590567572,0.0024300142355816925,9.493209247472892e-06,0.0024205210263342197
1324.3518836465487,0.1908710853460172,4.638384364440827e-06,0.19086644696165278
1328.1873929265407,0.0005409410656896562,2.647678197862283e-05,0.0005144642837110334
1329.5456953642088,9.671048552321662e-05,2.0279150780634518e-07,9.650769401541027e-05
1330.5946243449291,0.031102331847716207,0.0012267836382947811,0.029875548209421426
1334.2700185514532,0.009946334551119757,1.495316485608536e-05,0.009931381386263672
1335.385750275124,0.004032920612282223,1.3245128193878782e-06,0.004031596099462835
1336.6407867065745,0.020789772505061338,2.0942487202428063e-05,0.02076883001785891
1338.419828853365,0.0004209794825919336,6.789737221730492e-06,0.0004141897453702031
1338.5701067479467,0.0003636655985179418,1.6287701828373376e-06,0.0003620368283351045
1341.8245674083726,0.0010679249614701277,3.0239426573124374e-06,0.0010649010188128153
1363.6707733804765,0.00037590482923885796,0.00017209659270908074,0.0002038082365297772
1383.102244872065,0.0009252530264603377,5.9501329149483126e-05,0.0008657516973108546
1390.1536314324317,0.004440050673394237,9.882547868042863e-05,0.004341225194713808
1400.6843328980233,0.0005191381408278141,9.392570944578613e-05,0.000425212431382028
1411.2292249719171,0.0007502711123646027,0.00043731631959979827,0.00031295479276480443
1413.3008201420312,0.001859444063890164,0.00044855969034777543,0.0014108843735423887
1414.6871909630163,0.0007320044451689683,0.00027497885439181017,0.0004570255907771581
1418.8420755874272,0.0035325769737635936,0.00017792738831022784,0.003354649585453366
1420.4203427952525,0.01082312280976007,0.00014442391286603404,0.010678698896894037
1421.7069523927125,6.004048360715002e-05,7.07508715652092e-06,5.29653964506291e-05
1423.5080441706705,0.0020101719288171563,0.0009213932866001289,0.0010887786422170275
1435.9378084896425,0.0056567429902939816,0.0017748271953304023,0.0038819157949635794
1460.8672709821897,0.014201997676660597,3.2962184399242004e-05,0.014169035492261355
1479.9829172190036,0.00015237278416810302,5.30062793264182e-06,0.0001470721562354612
1480.2083854772623,0.0020466469758197766,0.00011589022872382631,0.0019307567470959503
1481.5080695203565,0.009576649284945457,6.937358567093828e-05,0.00950727569927452
1482.1900316717843,0.0015281871624547028,0.0005121622827639226,0.0010160248796907802
1483.7153667640005,0.002384245851094527,0.0008779629893543642,0.0015062828617401628
1484.6288857798402,0.19149770484179413,0.0177046304571797,0.17379307438461442
1485.4747794610641,0.015563919679338551,0.00016730065719775103,0.0153966190221408
1485.8689084587586,0.11551302408725984,0.0064528634337883885,0.10906016065347146
1488.0401251987719,0.07637755621790555,0.0076432099262098326,0.06873434629169572
1488.771067822891,0.004967745739488428,0.0002654325248102984,0.004702313214678129
1492.2657847430107,0.011554683240578744,0.0006190936700090086,0.010935589570569735
1493.73478424474,0.027015535210814488,6.894998946481623e-08,0.027015466260825023
1495.1901889864068,0.024344464083667586,9.209221210048984e-06,0.024335254862457537
1496.0006781081868,0.0003970296209412305,0.00024482905988649605,0.00015220056105473442
1496.5566557578031,0.005706289117926467,1.6255922639374363e-06,0.00570466352566253
1499.684772879239,0.0035761164720827248,0.00021962344809711517,0.0033564930239856094
1502.9114984644848,0.000900148153113625,0.00043782626924276273,0.0004623218838708622
1505.2920700636137,0.0013312699419742412,7.002675929077043e-05,0.0012612431826834708
1506.455631339202,0.0010754083618837104,3.0079863295499002e-05,0.0010453284985882114
1506.6505018459786,0.0011308391330704412,0.0005795971435228674,0.0005512419895475738
1812.8994943675,0.025070337686166906,0.019415240105014712,0.005655097581152193
3021.0940480574877,0.09451847900877973,0.09105752036469825,0.0034609586440814805
3021.5340076259395,0.012088292223769668,0.011997301265163086,9.09909586065828e-05
3021.781130688158,0.02333812883050185,0.02318141170131458,0.00015671712918727157
3022.713764103679,0.19137645353882332,0.18030738901343307,0.011069064525390237
3023.9517369346377,0.09267125903363918,0.08723702089967443,0.005434238133964751
3024.550408172313,0.06183485231348267,0.05289253685403021,0.008942315459452461
3025.2855191890776,4.902655089875534,4.82846379082235,0.07419129905318397
3028.0871681275994,0.0663177671110894,0.06136353443109949,0.004954232679989909
3032.004055325047,0.06287551834578792,0.056481645775940025,0.0063938725698478955
3035.8968306186603,0.07792369811240574,0.07168192840828891,0.006241769704116824
3038.8173512473054,0.7718713643209844,0.695220259828046,0.07665110449293829
3039.1727341754627,0.07036923159707933,0.06420386889665795,0.006165362700421376
3041.284402010725,0.3855935307361349,0.35570194677211386,0.02989158396402101
3042.920874924948,1.5711785596033974,1.1276341894339232e-06,1.571177431969208
3043.82715598218,0.078006822967969,3.664690854895152e-05,0.07797017605942005
3045.1652096526163,0.47875865024505043,1.2586370305165071e-05,0.4787460638747453
3047.5675337431767,0.0008233814154811275,1.4149979227286417e-05,0.0008092314362538411
3050.1275114350206,0.9162447196474843,0.9089202937655468,0.007324425881937439
3051.2568014430904,0.08879108437564913,0.00025893739341587436,0.08853214698223326
3052.203435401088,0.43691203096044484,0.4231543727772549,0.01375765818318999
3056.330054157788,0.009693203513752429,0.00022437309637552671,0.009468830417376901
3056.9968337531864,0.8748391863469057,0.7813955660233366,0.0934436203235691
3059.0887901456704,1.010995217330013,0.9970484285182669,0.013946788811745995
3062.8810706887816,0.06103317473437921,0.0008012305496062332,0.06023194418477298
3067.5648007458553,0.026445327676371404,0.025017211366302177,0.0014281163100692289
3069.644244952286,0.01663194409039396,0.0002171608512903554,0.016414783239103604
3072.5046795811086,0.4243430919666369,0.033638999682386275,0.3907040922842506
3075.7739764082658,0.0734523008690654,0.00013654278370273592,0.07331575808536267
3081.2865899531284,0.006750533633489217,0.00017959285139010185,0.0065709407820991154
3086.0971315099882,0.06376599464001335,0.00023230368947268134,0.06353369095054068
3089.3614504109078,0.020655858734569755,0.0006036253521594911,0.020052233382410262
3091.295038776829,0.1881569196794151,0.0030989461496719467,0.18505797352974318
3093.336091645986,0.49263241410851083,0.4421293038331857,0.05050311027532511
3104.12079091501,0.04704352837970524,0.006442149506445867,0.040601378873259375
3111.1232084770168,0.0009310192788923735,0.00033487785163738,0.0005961414272549935
3113.060933798873,0.12872884267773038,1.2403459336355137e-06,0.12872760233179675
3118.340997278848,0.18568511060698126,0.004932824759972913,0.18075228584700834
3121.2767445208947,0.4098295506202155,0.06271463160410666,0.3471149190161088
3125.3372509598867,0.3963812525909248,0.06152643981487616,0.33485481277604867
3145.9223771053635,0.15119353587550288,0.012092033949641348,0.13910150192586154
