frequency_cm1,total_intensity,isotropic_intensity,anisotropic_intensity
3.7544226255615247,0.0,0.0,0.0
3.88194483639101e-05,0.0,0.0,0.0
2.804314292683451e-05,0.0,0.0,0.0
2.1611194620658128e-05,0.0,0.0,0.0
0.9996287591608944,0.0,0.0,0.0
1.2422519262426315,0.0,0.0,0.0
20.388970229212966,0.0012970167269928741,3.1639408112204304e-06,0.0012938527861816537
21.15364348772884,0.002310351439305476,6.85817605303079e-06,0.0023034932632524452
37.744453935421404,0.003262950841574023,7.274362700015953e-05,0.0031902072145738635
54.06032006889832,0.0034410596578774216,4.040536753406822e-06,0.003437019121124015
62.830800828814205,0.007871180527555085,0.000585585105555394,0.007285595421999691
98.46741651257256,0.003812568267776871,7.05854824913214e-06,0.003805509719527739
111.90164546010475,0.0008943438911145069,6.711276063526584e-05,0.000827231130479241
122.22621964883412,0.003878986883899541,7.02232527834443e-05,0.0038087636311160966
180.78834577804832,0.0022513586069993407,0.0004912842523225649,0.0017600743546767757
193.11514040676397,0.002695030162422606,0.0022277616209056333,0.0004672685415169724
216.9626992791737,0.0043709412819181,0.003776141360156561,0.0005947999217615389
244.57125584745256,0.0011708352446258275,0.0004243946280920728,0.0007464406165337546
248.14465627358078,0.004405409879509914,1.0722204894837358e-06,0.00440433765902043
293.26610324762515,0.0015044284935721971,0.0003821291883473247,0.0011222993052248725
348.7086833249164,0.011919584060122512,0.006804539149162844,0.005115044910959669
353.0823589238165,0.0030770862168388105,0.001501361409386689,0.0015757248074521218
395.05114429974003,0.003636327470331618,0.001633877891238184,0.0020024495790934337
460.598498949432,0.0053065647177720845,0.00025048461092094484,0.00505608010685114
497.04784084158143,0.002679914373607933,0.00011893125541225133,0.0025609831181956817
545.257829029933,0.0030235150632684487,0.0005166946638856491,0.0025068203993827997
680.9533938725475,0.004470893575749918,0.0003135630632168388,0.004157330512533079
726.5661436227517,0.0002542445878386157,0.00014870459595603346,0.00010553999188258229
735.4231050530593,0.0010964000972491562,6.717298249580631e-05,0.0010292271147533498
760.8591268235377,0.0085854679846364,0.0038993999528691746,0.004686068031767224
818.1836777733187,0.0062912799053784895,0.002801116461239788,0.0034901634441387016
855.8268908728221,0.02201210072657962,0.013905512105907352,0.008106588620672267
870.2668098612779,0.001821693512392771,0.00014606558519449363,0.0016756279271982774
881.9359108065338,0.12175818494805607,0.09818894519742692,0.023569239750629155
928.1824463271745,0.026748721753510375,0.015421663176429868,0.01132705857708051
941.9604437710419,0.007712698509299646,0.000250095141264205,0.0074626033680354415
965.0791165698267,0.008413846015851982,2.3528769845554068e-05,0.008390317246006428
988.837782707752,0.009596608547950247,0.005272426007184135,0.004324182540766112
1001.2798529337275,0.016804326696367427,0.003679999316386003,0.013124327379981425
1031.8259772109209,0.016468608659040734,0.009348107396790461,0.007120501262250275
1038.6368574809323,0.007686394892695246,2.5254533324276522e-05,0.007661140359370969
1053.0328625260718,0.007794462684326581,0.004063604920486429,0.0037308577638401523
1062.6867188313645,0.009061319384611865,0.004807777565794838,0.004253541818817026
1089.2404227208203,0.0005796405346586779,0.00015967176582516875,0.0004199687688335091
1092.3716314008725,0.02362185898627114,0.0001602327103120806,0.02346162627595906
1112.0013712369623,0.038355215487315124,0.0004336837441857186,0.03792153174312941
1115.8033496471917,0.01385595705615484,2.3223525070844244e-05,0.013832733531083996
1133.479595873903,0.019587387802468055,7.47613887320231e-09,0.01958738032632918
1138.3928706860513,0.008498288836079556,0.00046271788292171786,0.008035570953157838
1167.0892334062562,0.033138488188765504,0.016977489241662903,0.0161609989471026
1209.5689448703815,0.01131753748760426,0.008236101891607827,0.003081435595996433
1232.8376779694536,0.0021968358624441836,0.0010590541040260153,0.0011377817584181684
1251.2375787259205,0.014244331939623862,3.246737553815487e-08,0.014244299472248324
1254.2331441806941,0.0066562419811988655,0.0006313300852814606,0.0060249118959174045
1284.301202349873,0.012965951407253058,0.0037695925631599657,0.009196358844093092
1292.3036571603925,0.010015574802165297,0.0012236801249408812,0.008791894677224415
1309.73251030629,0.01118616012020738,0.0025818428028887693,0.008604317317318609
1316.7412756767726,0.01395671909477847,0.005523435372723889,0.008433283722054579
1323.1316767803014,0.09021415135147179,0.03223311855678925,0.057981032794682544
1337.4827328859133,0.046349986682897595,0.020853685964202902,0.025496300718694694
1338.6328565386682,0.09673193444147868,8.362676523421148e-05,0.09664830767624447
1350.830722561484,0.0077942546020004395,1.8171883941817762e-06,0.007792437413606258
1355.1998712539767,0.04549523389618459,0.005490531037743472,0.04000470285844111
1362.1342348905266,0.007759618034552485,0.0026623314820040374,0.0050972865525484475
1395.1711128595987,0.007498000724512998,0.0014985131780085432,0.005999487546504455
1401.8793565741323,0.002436017189723262,0.0010864263366127552,0.0013495908531105064
1411.8285044124505,0.007217229449219762,0.0026353304008097317,0.00458189904841003
1417.3368650752682,0.009017547400975353,0.0016520340435749853,0.007365513357400368
1450.8104675759046,0.0020795938793243237,0.0006992959706940503,0.0013802979086302732
1453.4180185083444,0.0687003977137644,0.022220458474687843,0.046479939239076555
1473.844327987011,0.026786589389718774,0.0004946454455742685,0.026291943944144507
1479.42135420605,0.008048531724646237,0.0004472384430690014,0.007601293281577236
1481.995420550389,0.08664885062595913,0.006125754220240901,0.08052309640571823
1483.1786741313535,0.02631165087210613,0.002836376400301633,0.023475274471804496
1485.4938142659805,0.022336056044332732,0.00011122976646823464,0.0222248262778645
1489.3080317656193,0.011843888214756253,0.0005435927125018985,0.011300295502254355
1497.9054848073927,0.0014779662457997667,7.048069385998268e-05,0.001407485551939784
1502.1134814646068,0.0005769574586968654,5.4010539297654954e-05,0.0005229469193992105
1521.4868181406941,0.0228361658576669,0.00016218755435586625,0.022673978303311033
1733.4749917129564,0.23497813013433996,0.1799981272512733,0.054980002883066675
3022.216846474042,0.28489987993780536,0.1203260981989419,0.16457378173886347
3025.082530572996,0.5489966679348979,0.48145713342275953,0.06753953451213837
3027.9415932847655,1.1739654688365027,1.0319813470539536,0.1419841217825491
3029.9341902805695,0.012446623417773936,0.0005029317106858473,0.011943691707088089
3035.2832608455215,0.7605642073175916,0.5986363088763171,0.1619278984412744
3038.007061610363,0.37808313721475173,0.2908076433005106,0.0872754939142411
3045.4225374194443,0.0402804258756244,0.036427282192304296,0.003853143683320106
3046.182099836173,0.5473343765326778,0.33243759583943133,0.21489678069324644
3056.1422143732552,0.53590798467912,0.3442225203058739,0.19168546437324613
3058.8229595476314,0.48918970285863234,0.03290210185358261,0.4562876010050497
3063.5622042197724,0.9259071488947598,0.8094003732079843,0.11650677568677552
3067.3528134359944,0.012301524177794574,0.00035325799047104686,0.011948266187323527
3078.9280971143708,0.6309147663037165,0.2812107818121501,0.3497039844915664
3083.5299734242762,0.08712007314019368,0.004300280831341584,0.0828197923088521
3092.3694969889007,0.346279246049247,0.13264560902075231,0.2136336370284947
3096.8963238822535,0.11907266835193142,0.03534180214442408,0.08373086620750733
3098.684493806169,0.18422199710401746,0.04752316781405438,0.13669882928996308
3108.0707958014536,0.03761720543257817,0.008296406096298479,0.029320799336279693
3152.7813588088816,0.402092000198205,0.32203888579656637,0.08005311440163866
3162.3808085861406,0.49840316255281825,0.3519883956641721,0.14641476688864613
3239.3623708170753,0.3235443838488758,0.03265297220629853,0.29089141164257726
3880.9612512756694,0.5766798663978379,0.35455971893511096,0.22212014746272687
