frequency_cm1,total_intensity,isotropic_intensity,anisotropic_intensity
1.1064315414358357,0.0,0.0,0.0
0.8694244042711525,0.0,0.0,0.0
1.619324995924856e-05,0.0,0.0,0.0
2.9230929597531143e-05,0.0,0.0,0.0
3.350873389568978e-05,0.0,0.0,0.0
2.7099986246171324,0.0,0.0,0.0
21.855613431680638,0.00013487407683070353,3.6433109905914134e-09,0.00013487043351971293
29.75695996711531,0.000521668198626269,4.835010702043097e-09,0.0005216633636155669
34.473335322598864,0.00024333020897752757,2.8179191417384522e-06,0.00024051228983578912
51.90335392604974,0.00183279671298097,3.023942020878395e-09,0.0018327936890389493
68.4862406923982,8.97159774484902e-06,2.211646717092128e-09,8.969386098131927e-06
92.76207774199847,4.8150648098145454e-05,2.9559007009356887e-05,1.8591641088788567e-05
93.27814332756408,0.00024981383999030305,1.6320608354476945e-07,0.00024965063390675827
118.23142154035887,1.0978892533629639e-07,1.28936097714978e-08,9.689531556479859e-08
137.25674281355833,0.00033473945357741745,2.6035435494893526e-08,0.00033471341814192255
162.0435763373194,0.003673219015350748,0.002320601826101792,0.0013526171892489563
162.49283942973923,0.004672280817302142,0.0029644731825470647,0.0017078076347550775
169.55019568014924,3.9683827081507055e-05,2.2301500242097163e-06,3.745367705729734e-05
189.7423482478812,0.012960283065242464,0.008061608303318746,0.004898674761923718
245.70769626243273,2.0033592050354498e-05,1.0811464435018647e-08,2.002278058591948e-05
264.0084611781726,0.0011028168622702322,0.00015301799088888692,0.0009497988713813453
350.47380040935593,0.0007021303759557353,0.0003152083925098302,0.0003869219834459051
368.13375360174734,0.00010486593970781176,2.7161522286716242e-05,7.770441742109552e-05
464.3858208096834,0.001113702495002129,0.00042996099870776,0.0006837414962943689
479.010128368341,0.002646028637390491,0.0017116428432945576,0.0009343857940959332
521.4952351503225,0.005867865706903708,2.3365558897125512e-07,0.0058676320513147365
524.7575091515552,0.0004607724632000568,2.6644187161118012e-05,0.00043412827603893876
639.7107666779384,0.014418472267378562,0.007673225115000408,0.006745247152378153
652.7591050987961,0.003450417726118974,3.901568571626992e-06,0.003446516157547347
728.5105435657399,3.167197068881053e-05,9.11756561024107e-07,3.076021412778642e-05
730.7947168348342,6.797734109777005e-05,3.0433792902479684e-08,6.794690730486758e-05
739.4891855639569,9.987546066201223e-05,1.9223517147334603e-07,9.968322549053888e-05
762.6534382908426,8.860100981936779e-05,4.5855392979976054e-08,8.855515442638781e-05
803.408757585833,0.0003006785128865205,2.9596833034179505e-07,0.0003003825445561787
857.4954234454716,4.069982745960815e-05,1.6216124422770417e-06,3.90782150173311e-05
892.3620596851658,0.04685226621290804,0.04047880654279482,0.006373459670113221
908.3501913408531,0.0348110673835528,0.021580075855164877,0.013230991528387926
921.0352051127165,0.0003754256903351835,7.718755716672215e-07,0.00037465381476351633
985.8111649653295,8.873515151807705e-05,8.275992078234571e-07,8.79075523102536e-05
1014.4850935101337,0.0031461303036029566,0.001957675263556371,0.0011884550400465858
1028.7891746981238,0.000993274853861197,1.5728229620798672e-06,0.0009917020308991172
1043.8129050440382,0.0001050729885594865,9.799859029818537e-07,0.00010409300265650464
1050.6095456459175,0.0034319787198101815,0.0007386207256064416,0.00269335799420374
1075.337610016968,0.014287211239572105,0.007128348389839582,0.007158862849732522
1082.289718679859,0.03463570176235431,0.00025940292940711214,0.0343762988329472
1090.546661688125,0.04450730124231734,2.72318310716412e-05,0.044480069411245694
1092.0730062135567,0.004440927300640366,0.001345114719387506,0.00309581258125286
1104.0419766381708,0.033216868963504474,0.01526396117164522,0.017952907791859252
1144.5158261567972,0.0048167287501095606,5.413044435365615e-05,0.004762598305755905
1147.8788038386479,0.07289720354946094,0.041620531398540946,0.03127667215092
1167.168104739558,0.10634196478068676,0.06884156135691565,0.03750040342377112
1209.2074169875345,0.0073900496789079066,2.538158856839534e-07,0.0073897958630222225
1231.2818927862015,0.0009124386393404005,6.800732733692906e-05,0.0008444313120034714
1239.8247338145384,0.0007924121329805663,9.406157380869917e-09,0.0007924027268231854
1264.8905285756148,0.0009855793028703186,3.8815379401337186e-06,0.0009816977649301849
1273.382174262222,0.001978599549661346,9.177653833888261e-09,0.001978590372007512
1292.777869499044,0.001939701749034711,2.005314034224798e-05,0.0019196486086924631
1302.6044477145745,0.0003356328093312996,1.1573287371495028e-08,0.00033562123604392814
1321.0781842065944,0.003806620082380229,0.00010346643049800492,0.0037031536518822242
1322.3278493055393,0.03949693782597625,9.085143426214325e-08,0.039496846974541984
1327.7303165055707,0.08221923987722812,1.6910093492929117e-08,0.08221922296713463
1332.031297314042,1.6569790428853155e-05,7.55749508359959e-07,1.5814040920493195e-05
1337.020022380146,5.0317311336207716e-05,5.733645059920833e-08,5.025997488560851e-05
1338.5767529419052,0.004346635217681089,3.0498061372374347e-09,0.004346632167874951
1352.8049856639334,0.0017556876105525618,0.00029891078751521444,0.0014567768230373474
1382.3340819061211,0.003766311884257911,1.4047524292392373e-05,0.0037522643599655187
1405.1634982423043,0.0006572821745147034,0.0001081899584837801,0.0005490922160309232
1412.6432291588696,0.0015462467729643451,0.0010001147183033615,0.0005461320546609835
1418.6752894654805,0.0033124846435990583,1.1467006167381029e-05,0.003301017637431677
1421.5983923969982,0.006054556734974412,3.800164419812191e-05,0.00601655509077629
1435.2757008942426,0.004095707184119948,0.0005936944199220888,0.003502012764197859
1457.7312369195201,0.018329684707784278,3.0812446328568826e-05,0.01829887226145571
1480.6260614185253,0.0006874666212260348,6.15526538309043e-05,0.0006259139673951304
1480.9186802289448,0.0013284553477986819,0.00023735900628794245,0.0010910963415107393
1484.0208521224954,0.12585994849106985,0.006214210984657349,0.1196457375064125
1484.3667613817174,0.03177544353460434,0.0013456442065389834,0.030429799328065357
1488.5215542147419,0.03704298968532812,0.0010616523935143242,0.0359813372918138
1493.7134864609186,0.02235727747075375,9.49050988514986e-06,0.0223477869608686
1493.7588023779902,0.005263016528127587,5.0773480685539776e-05,0.005212243047442048
1499.3598290958987,0.006101394062589586,0.00010999796989992624,0.005991396092689659
1504.0249743631578,0.001693979639460488,0.00032370037782859416,0.0013702792616318937
1506.3670926348361,0.0010900220903667427,4.345371056046334e-06,0.0010856767193106963
1839.4045655759808,0.0499772002593737,0.030334042993309978,0.019643157266063728
3021.9144506555845,0.11610509197000704,0.10551478357052456,0.010590308399482487
3023.0822798925083,0.02180760747522215,0.020464379753861055,0.0013432277213610935
3024.6388053684564,0.03435609549750452,0.034175884737978494,0.00018021075952602732
3025.317790868827,2.7082129318318833,2.6230315241999427,0.08518140763194074
3031.0533563111735,0.11690175152256357,0.10477435747829728,0.012127394044266293
3037.498647330529,0.1474230268552944,0.13595298664458497,0.011470040210709433
3041.439632615956,0.3828865121199658,0.35271234477415414,0.03017416734581168
3044.179482249525,1.1469341441943173,5.441508934495367e-05,1.1468797291049724
3046.704589681322,0.0447002557049796,6.126154690182978e-07,0.04469964308951058
3050.0591606239004,0.9088349528393713,0.9015115414109157,0.007323411428455599
3051.7199514360223,0.18633675699624863,4.0861251713010286e-05,0.18629589574453562
3060.2974537493183,0.9365859280248847,0.8937699241107777,0.04281600391410698
3060.5076105624007,0.06463910426988924,0.046099609834966346,0.018539494434922893
3069.1953063817446,0.043625086010216675,0.03831728611185534,0.005307799898361333
3071.7201385512963,0.11556218234554955,4.078670799750617e-06,0.11555810367474979
3080.6413042119893,0.012141627165729656,1.0837944040005251e-05,0.01213078922168965
3087.9355398664356,0.08419913711565351,8.822353042179004e-09,0.08419912829330047
3092.677342027066,0.20715368987799315,9.642386297776726e-05,0.2070572660150154
3112.197793338766,0.004071890412179706,5.741446701272931e-07,0.004071316267509579
3113.046078614363,0.12798673066946556,5.394124998850233e-08,0.12798667672821556
3121.184024380902,0.4093757590691793,0.062370199573131765,0.3470055594960475
3798.4659573827057,0.49039646045585283,0.3047341749017749,0.18566228555407796
