frequency_cm1,total_intensity,isotropic_intensity,anisotropic_intensity
2.728560359356778e-05,0.0,0.0,0.0
4.8038159469015815e-06,0.0,0.0,0.0
2.1456999280652812e-05,0.0,0.0,0.0
0.9974723384287458,0.0,0.0,0.0
1.0611905449770553,0.0,0.0,0.0
1.5228885777618644,0.0,0.0,0.0
4.88474227363694,0.0,0.0,0.0
8.547942100192982,0.007974551133789712,6.531393602099564e-06,0.007968019740187612
11.656480170056755,0.0019151473873630096,6.535666293434514e-06,0.001908611721069575
19.07833109999376,0.00016449306331638765,3.2302050138335226e-05,0.00013219101317805244
19.792408618389924,0.0008155798775007078,4.77828412926474e-05,0.0007677970362080604
25.608223992681562,0.002036517743698865,3.879571213394805e-06,0.00203263817248547
33.624973519076256,0.0014113648542473912,4.1483379839346814e-05,0.0013698814744080444
41.56983820891087,0.001244999152656739,4.122227832232424e-06,0.0012408769248245064
46.86573534854551,0.0015350431464789024,0.00029337895106040123,0.0012416641954185012
55.41983304521651,0.00046150123417511144,3.0346034383490727e-07,0.00046119777383127656
60.98725058229651,0.0008006753004846707,1.0165610223813181e-06,0.0007996587394622894
69.19408836303326,0.000758550877497546,4.6356038270336075e-06,0.0007539152736705123
91.6507606229222,0.00034970127101417747,0.0002788205705699319,7.08807004442456e-05
94.3422545237494,0.0006485628080243319,0.00010156586030957234,0.0005469969477147595
101.77869761166596,0.0022558520147240545,0.0008674816309567801,0.0013883703837672744
103.42684330261203,0.0015464631852417834,0.0006582636048775699,0.0008881995803642134
110.51514530365985,0.0010091346638597322,1.7339565161860224e-05,0.000991795098697872
120.75151373364722,0.0003893201568038575,1.934867681660899e-06,0.00038738528912219663
135.2927292565529,0.0010485645305416934,0.0008108260995902002,0.00023773843095149322
139.70775610554037,0.0009718065317149761,0.0001724666348507298,0.0007993398968642462
144.61346410572582,0.000526286835540166,0.0002974640901754619,0.00022882274536470412
149.20984965743548,0.00832366057599931,0.007183931150295123,0.0011397294257041875
154.06428945311444,0.0008069647425290227,0.0004922560099391656,0.000314708732589857
161.18846088402532,0.0007876999247727323,0.0003760279450784005,0.0004116719796943318
169.4272282642844,0.00011321596399343425,8.686073679649008e-05,2.6355227196944175e-05
170.97336969141708,0.00020888411979814731,9.514546948928295e-05,0.00011373865030886436
183.7091024364343,0.0015839848323631108,0.0004979585312339434,0.0010860263011291673
219.01464827108526,0.007390021785391142,0.0032624821345437977,0.004127539650847344
243.95726776780063,0.003080291007150758,0.0018692866851858132,0.0012110043219649446
246.3303847752021,5.1465840990821155e-05,2.453892985373758e-05,2.692691113708357e-05
279.78477893180224,0.005855895849004252,0.003724289422234839,0.0021316064267694126
286.4163785908109,0.0015867569803906017,7.154630137529665e-05,0.001515210679015305
327.3980468726655,0.0016079945903252192,0.0005565777414541983,0.001051416848871021
343.2300760848455,0.0014204969063410695,0.00018470283594949923,0.0012357940703915703
385.0872902579219,0.0011029592770098334,6.722637225137667e-05,0.0010357329047584567
415.33087355335766,0.002312709702033462,0.001218099316063321,0.001094610385970141
444.683477865673,0.002159966823780145,0.000664327282854091,0.001495639540926054
451.73613756464636,0.0008021617637091565,0.0002744593337702648,0.0005277024299388917
479.2155316973537,0.0011054688787047896,8.608318762459744e-07,0.0011046080468285436
498.49805000076475,0.0005692274008995406,1.0257442017001643e-06,0.0005682016566978405
502.75163204475433,0.0025266598894310125,1.33858778497418e-05,0.0025132740115812705
510.6980598247477,0.0017727178613376538,0.0003836157241827493,0.0013891021371549045
544.5055134449851,0.0059347707410603275,0.0014345055877030145,0.004500265153357313
579.5931308084806,0.005204241900054963,7.951251651029357e-07,0.00520344677488986
621.0128968496788,0.00574614582227372,0.002160364111806768,0.003585781710466952
629.016942886802,0.00548422030108173,0.002284400503479028,0.0031998197976027018
728.2619379437167,0.0002504328033196758,0.00014145805307055434,0.00010897475024912146
728.5089974535075,0.0003721433678375203,0.00016779334763206803,0.00020435002020545225
729.7649496375285,0.0003413681133422779,0.00027600500183308393,6.536311150919396e-05
733.2392803019087,0.00041562574600122497,0.00030367272849617284,0.00011195301750505215
735.800186290367,0.00022823719600248988,5.3980100805678036e-05,0.00017425709519681184
749.8167186741822,0.001035991323589439,0.0004983169240462857,0.0005376743995431534
754.1305310528026,0.0005826096464840013,2.1324613558168652e-05,0.0005612850329258327
762.013038243392,0.00421642034886995,7.168946854164987e-06,0.004209251402015785
779.9647523548109,3.953201048784852e-05,1.6496132405387784e-05,2.303587808246074e-05
800.1789078902866,0.0003253528479184742,0.00011062597211404842,0.0002147268758044258
823.0224962568299,0.0005829040189393995,0.00020164775144888318,0.00038125626749051635
864.8638656458937,0.007003595812268039,0.005623958275022715,0.0013796375372453237
867.8065348242528,0.02805816740457555,0.020938880197594677,0.007119287206980872
877.1126172231985,0.0006134422101336689,0.0004273884458690666,0.00018605376426460228
908.0539322326746,0.035831175842554505,0.023386434812838686,0.012444741029715822
925.7462705991347,0.0014985116197942982,0.0012447400131779102,0.000253771606616388
944.1745626734489,0.004860451566072701,0.003890118376520667,0.000970333189552034
958.7510617404209,0.013030433461323772,0.01136130138311597,0.0016691320782078007
988.6391497792675,0.0019892485261647176,0.0013199359781414551,0.0006693125480232625
1009.1650074064071,0.0027218460013755147,0.0008454206991773404,0.0018764253021981742
1013.5597105234609,0.011119047667626294,0.005658186892666434,0.005460860774959862
1015.9868965076915,0.007733769746144147,0.003514841625726634,0.004218928120417513
1024.0134914120727,0.006228777735447948,0.0027492338259056024,0.0034795439095423454
1025.7585036043217,0.004988701915957853,0.00047897809801725183,0.004509723817940601
1034.2687423264438,0.0029931961505738963,9.245717194605765e-05,0.002900738978627839
1042.0361657866836,0.009287008149052825,0.0017547965375662145,0.007532211611486611
1044.8309758663231,0.0023260765330102963,0.0007155112935834357,0.0016105652394268607
1052.485541483786,0.003673563742113982,9.029769433458426e-06,0.0036645339726805236
1064.490959791061,0.007228374208341864,0.0004782529671736407,0.006750121241168223
1071.9808686926579,0.01416257832367179,0.008686584529652536,0.005475993794019253
1073.9562397836214,0.015770980621042728,0.0065876461038625435,0.009183334517180185
1078.74179507232,0.046785553142597865,0.022072387101735313,0.02471316604086255
1082.1146631806696,0.01477579725583755,0.0007501880895469294,0.01402560916629062
1088.8269192421913,0.07072026634296602,0.001741716866365364,0.06897854947660066
1089.2029718386189,0.021798671308250007,0.002437571055470303,0.019361100252779703
1090.942940554581,0.011143958113410657,0.0009459022247186932,0.010198055888691963
1092.0637097157762,0.053662476224666515,0.009586502295310363,0.04407597392935615
1092.3083077166386,0.0032814506220045486,0.0025018252313977127,0.0007796253906068361
1105.804012894532,0.019252082457729077,0.0014762240352499821,0.017775858422479095
1112.749830858199,0.010068237818890142,0.00039029192874724276,0.009677945890142899
1135.8676881143438,0.006969400205256845,0.0009513435915088381,0.006018056613748007
1141.7232457516895,0.3017653488325647,0.18076390597537734,0.12100144285718734
1150.2043233582115,0.16164530079726935,0.09790303067569253,0.06374227012157682
1184.258895596659,0.00556926265936761,3.096052854012353e-06,0.005566166606513598
1212.7533553632436,0.008993702367957556,9.320059145864347e-05,0.008900501776498912
1216.1533665839015,0.0024347946152182384,7.021842176936033e-06,0.0024277727730413023
1219.6819261302594,0.005011146887631921,3.683119064719953e-05,0.004974315696984722
1232.916983650935,0.002438492449801625,0.0009011399889469385,0.0015373524608546867
1239.1158134464406,0.002482339382780472,0.000742721142887817,0.0017396182398926549
1246.9881469917082,0.0004726461599662394,1.5427165927261104e-05,0.00045721899403897826
1254.1615053648034,0.0020748010226108106,3.8239875637265364e-05,0.0020365611469735454
1262.9852440004238,0.005145802732622481,0.00028344802847489036,0.00486235470414759
1275.0471740354378,0.017338769644003705,0.0012388622878323117,0.016099907356171395
1276.3666871441808,0.0007060325799210778,0.0002838650607277961,0.00042216751919328167
1287.2290404824926,0.0409387153980861,0.007366807222985256,0.03357190817510084
1289.9463990538345,0.0015333612467267393,0.0006923888088625876,0.0008409724378641517
1297.5260895887602,0.060842004100242125,0.011042426067962128,0.049799578032279995
1304.7915083691653,0.07672073206266031,0.011443983191552518,0.06527674887110779
1317.166412634742,0.004112472511925824,0.00022671567778237732,0.003885756834143446
1319.5454331109481,0.0032005255730753967,4.111159978366917e-05,0.0031594139732917274
1320.6391095364884,0.05124133464530865,0.008377548414399688,0.042863786230908967
1322.0078146341443,0.0014754311121840979,0.00021410617824208837,0.0012613249339420095
1325.0191607083243,0.13007488305358156,5.0703218703987204e-05,0.13002417983487757
1326.8467869112574,0.08402947922895515,5.723279581119806e-07,0.08402890690099704
1330.950350732764,0.002912616633445546,0.0006559352014368911,0.0022566814320086545
1331.2641783058582,0.0011232807184554017,0.0002806395173520657,0.0008426412011033359
1333.999870865215,0.001793855499524238,0.0005363818957042362,0.0012574736038200016
1336.4879622605733,0.002272226977051738,0.00022052155962623172,0.0020517054174255065
1337.5518132273967,0.0005761919843765132,0.00017268083658306861,0.0004035111477934446
1337.837817134278,0.002160861103339873,4.162259752712229e-06,0.002156698843587161
1347.717202199981,0.0052983775829826265,0.0001261332443088994,0.005172244338673727
1361.0971245358007,0.010215678584789823,0.0012889221491407267,0.008926756435649096
1374.414695285641,0.01280730308171651,0.00537748716309385,0.007429815918622659
1392.6039300154887,0.009193998433569831,0.004094082369319291,0.005099916064250539
1396.0850663559058,0.022698165704287006,0.006778781076145888,0.015919384628141117
1411.3137989426734,0.0010725003120619862,0.000268883910751498,0.0008036164013104881
1411.578153675911,0.013235319385061136,0.007335086888783144,0.005900232496277993
1414.322515846391,0.002312601311713427,0.000489525948874142,0.0018230753628392846
1419.543106882869,0.003962623241043633,0.0003460212548573015,0.0036166019861863315
1419.9626210004017,0.011134362271503303,0.0003697008457254701,0.010764661425777833
1421.2011099021984,0.004301212376908235,0.00021919935834608807,0.004082013018562147
1430.377173734121,0.009350904539207245,0.0033032614406990238,0.006047643098508221
1443.7351232291303,0.009699063538222016,1.8415136009905127e-07,0.009698879386861918
1461.2423033999394,0.017078128508488343,3.34304331716714e-05,0.01704469807531667
1478.6051245060826,0.013524140427306888,2.279188798386478e-05,0.013501348539323024
1480.0167617448735,0.015108567852617282,0.0036406805015667325,0.01146788735105055
1480.4597634065876,0.0026457900657404897,0.0006364613577694869,0.002009328707971003
1480.9088675115618,0.007824384989293508,0.0026421933154473854,0.005182191673846124
1481.5428396232799,0.004907966172463741,0.0012550313369194108,0.00365293483554433
1483.0116176805511,0.04651543964171967,0.00971950825699262,0.03679593138472705
1483.744293977295,0.1626482795228503,0.0001913664143797074,0.1624569131084706
1484.250061025435,0.145991391332637,0.027601823966831796,0.1183895673658052
1485.7107542494734,0.046468558115932784,0.0025132595717521186,0.04395529854418066
1487.7542625408091,0.004243226021075601,3.696288962076699e-07,0.004242856392179393
1490.6176891125594,0.014902206453645395,0.0017732081850176454,0.01312899826862775
1493.3374030244559,0.015696218390607617,0.0038672774386588303,0.011828940951948787
1493.8008579801146,0.026669099300475545,2.3646798395212084e-06,0.026666734620636023
1496.436217731527,0.006461253058218899,0.002305479112888719,0.004155773945330179
1499.0798907628105,0.003927838834083745,0.0015183222277507286,0.0024095166063330163
1501.9952417045681,0.0028917576238332355,5.457802686575139e-05,0.002837179596967484
1503.7664937558034,0.011435922637514789,0.0033791183773893146,0.008056804260125474
1505.7091478630255,0.0007582264401126649,1.0265857649963798e-05,0.0007479605824627011
1506.228338050746,0.005145358556266029,0.001484432945183241,0.0036609256110827883
1615.0272507157254,0.012252327459403287,0.00044397964882814995,0.011808347810575137
1759.0999470479253,0.35103234285057894,0.22262089360223405,0.12841144924834488
1787.5510352510532,0.05744867055745341,0.027773027431815075,0.029675643125638335
3020.3207333619603,0.13724130987566602,0.1318578858274459,0.005383424048220116
3022.229342032582,0.11806922225609268,0.10762086992056658,0.010448352335526106
3022.32177803404,0.007976243160703195,0.00636206900791848,0.0016141741527847153
3023.259896375003,0.05370384334043152,0.05064456673019375,0.003059276610237771
3023.559434337525,0.4984947322798618,0.4902267813502968,0.008267950929564997
3025.12258494971,2.553373822553917,2.5213278909446966,0.03204593160922063
3025.5049252014883,1.5696672710254789,1.5212828769732372,0.04838439405224167
3026.537230143645,0.39092373444506395,0.3848646631131458,0.006059071331918113
3030.554553589103,0.023593419897756776,0.019446478697270925,0.004146941200485852
3030.9633016233665,0.5601875119270433,0.5473906663904173,0.012796845536625957
3034.2620026343902,0.06878068088530562,0.04827825064507244,0.02050243024023317
3035.5546111454305,0.9943668510836003,0.918824339564463,0.0755425115191374
3037.871887720169,0.32623889018087643,0.24383312116585631,0.08240576901502011
3039.87418294762,0.16714931973943745,0.005410524582715558,0.16173879515672188
3040.488149802754,0.1821107866270599,0.002890637072603091,0.1792201495544568
3041.407844621365,0.7658171037193758,0.7352486852398857,0.030568418479490093
3041.5201523998367,0.5794939791661207,0.4139830486555695,0.16551093051055119
3043.8787442153384,1.1495770297772212,3.486943600288926e-05,1.1495421603412184
3044.2430144447967,0.8052653245130041,0.0019776449954855687,0.8032876795175186
3045.574494472626,0.0024224479933535117,0.00043185831724718726,0.0019905896761063246
3049.1224162759645,0.138726928059867,0.00040919755486650553,0.13831773050500049
3049.4274452926607,0.019052713008778078,0.01717466194386436,0.001878051064913718
3049.753901619646,0.9008246693232036,0.8930091368507632,0.007815532472440413
3055.3504915962485,0.014724106858167371,0.0011327994129811925,0.013591307445186178
3059.0182206239747,0.17457125030229534,0.002918395962368558,0.17165285433992677
3065.1482148273744,0.07053353041145353,0.015323596952179757,0.055209933459273774
3068.1939084962773,0.27488107018554414,0.2650465044965517,0.009834565688992438
3069.9321975676435,0.011559843885418941,0.002946982110981012,0.00861286177443793
3073.7491951056895,0.08388581323064019,0.02570442161127845,0.05818139161936174
3075.5860323740117,0.20112551875581042,0.0002556505553131185,0.2008698682004973
3079.3112805644655,0.14573980340463905,0.00550945053633246,0.1402303528683066
3082.8274357605783,0.012416015331442523,0.004889586690499819,0.007526428640942704
3087.219381952597,0.011848448691575367,0.004874219960810095,0.006974228730765272
3088.946904941147,0.01382298279825643,0.004734210943886074,0.009088771854370356
3099.869417333329,0.02866345381238134,8.30082325194201e-05,0.028580445579861922
3111.7448244281914,0.036722893024851905,0.0014203964450687713,0.035302496579783134
3112.660454028916,0.15762994682787512,0.002743073667615803,0.15488687316025931
3112.991097113659,0.3123203094686159,0.18516353093251656,0.12715677853609933
3121.0092774937716,0.4143950310129364,0.06400818402111218,0.3503868469918242
3138.495328231379,0.22682262249515853,2.1970280606519233e-05,0.226800652214552
3160.9788830651355,0.755102274282486,0.5689696338204204,0.18613264046206562
3627.8430539236056,0.7427330715626415,0.6374112532524944,0.10532181831014713
3768.4850212970396,0.20178224225453323,0.00016094186735704692,0.20162130038717618
