frequency_cm1,total_intensity,isotropic_intensity,anisotropic_intensity
2.066360362496031,0.0,0.0,0.0
2.9205165394198556e-05,0.0,0.0,0.0
1.4693194510833635e-05,0.0,0.0,0.0
1.068042676078989e-05,0.0,0.0,0.0
1.6039816356423258,0.0,0.0,0.0
1.6943257531562628,0.0,0.0,0.0
22.184699125054657,0.002118561915592153,1.090753592777078e-06,0.002117471161999376
37.16393690220937,0.0029122625004874402,6.197951930044376e-05,0.0028502829811869967
50.44728606932516,0.0020051797588112453,6.499181446720807e-07,0.0020045298406665734
60.77598221353525,0.0010396317208071287,1.5091940456041038e-05,0.0010245397803510877
76.38067247461076,0.0015291394608304455,0.00017112009154813073,0.0013580193692823148
86.24179253019072,0.0012117097826927971,2.226575467829813e-05,0.001189444028014499
122.0096901139052,0.0005717052627196455,5.223832888412722e-06,0.0005664814298312328
130.17699401430102,0.000312438893040557,0.0001747386558872124,0.00013770023715334458
140.47024223261513,0.000615113230356107,0.00019254027356940725,0.00042257295678669986
155.5330523161897,0.0013440731662364262,0.00012886004533260788,0.0012152131209038184
227.15521854282895,0.0033777729569663285,0.001584663657629919,0.0017931092993364092
246.79673852202586,0.0010583609490150184,0.00038535012815977437,0.000673010820855244
267.70123310827285,0.0007094181668748471,0.00034257268081677386,0.00036684548605807327
284.654778231231,0.008933878090370844,0.007743073419390312,0.0011908046709805322
326.16871375292556,0.0027827888014536743,0.0009821285005902894,0.001800660300863385
341.84581199925555,0.009442208925355671,0.008126140783949786,0.0013160681414058851
398.39524526500014,0.0031302058624266137,0.000555011089197947,0.0025751947732286667
462.93858328502176,0.004055344869383398,0.0011131406899437168,0.0029422041794396818
479.2951927731276,0.0024115191540574413,0.0005685396844424381,0.001842979469615003
531.3954765655743,0.002659755632967568,0.0004326727118627258,0.002227082921104842
593.5719662729794,0.011862879151247556,0.004719951989510729,0.007142927161736827
728.2848081379901,0.0038542567787387973,0.0030741724742929365,0.0007800843044458608
741.3119322445332,0.013365714402993032,0.011219540932435152,0.0021461734705578808
750.9946200902273,0.039763118170704624,0.03549568167805315,0.004267436492651472
773.6035565826227,0.006511835391331135,0.0012742527979275095,0.005237582593403625
835.0757762983901,0.030827903246293104,0.026464434094674357,0.004363469151618748
845.3499081944733,0.0036823572798752153,0.0009714354863310836,0.0027109217935441317
861.0750129045907,0.025804026083362706,0.01867684573263272,0.007127180350729985
889.6593833094324,0.040630126566247954,0.016048816578217454,0.024581309988030504
911.0429757011136,0.0013506445907890974,8.781367860216447e-05,0.001262830912186933
951.0258420449069,0.004968792432940389,7.364788995836829e-05,0.004895144542982021
984.6664900214296,0.0037943562595651546,0.00021142077323132657,0.003582935486333828
1002.2214163383585,0.013877399503368849,0.010412703616097224,0.0034646958872716254
1016.9730030053105,0.010803901265797824,0.00028584055365267523,0.01051806071214515
1047.4288490364913,0.005499684230076045,6.735162067862385e-05,0.005432332609397421
1057.1597369472313,0.005651477955589093,7.156496872496284e-05,0.005579912986864131
1061.6268680953508,0.06520002323541016,0.0399559978396921,0.02524402539571806
1076.5727426465157,0.029115128899386188,0.016039384943135924,0.013075743956250266
1107.9882801155818,0.04525335252605809,1.2996464942087715e-06,0.04525205287956388
1114.3403015616896,0.016549555312529805,0.0017008812718980735,0.014848674040631732
1144.7783511518735,0.018682476929660605,0.006093226915375561,0.012589250014285045
1147.7438053919295,0.00435215485312436,0.002264862120809534,0.002087292732314826
1187.2120437971696,0.01852724315792903,0.0006178650803534223,0.017909378077575606
1201.9574578124011,0.021892953226293557,0.01665282794081466,0.005240125285478896
1228.7023116345913,0.01205528904271286,4.499125616539615e-05,0.012010297786547464
1243.1829665872224,0.00549254841161822,0.00010044282176333576,0.005392105589854885
1274.0864139770974,0.01653083773164076,0.008912487149502352,0.007618350582138408
1280.9467228827132,0.006318371437403462,0.00011188281416222857,0.006206488623241233
1303.1788229380331,0.009458467454721859,0.00012095231088283063,0.009337515143839029
1321.0676439756576,0.0009690300207214141,0.00018213494900081245,0.0007868950717206017
1330.1237633494318,0.016213123499655657,5.283648029234909e-05,0.01616028701936331
1335.1686782941035,0.03390257109056191,1.4943201818803142e-06,0.03390107677038003
1342.7409800541773,0.02449203151053626,0.0009698545240520554,0.023522176986484206
1358.653602713988,0.01257355615916562,0.001135551685879006,0.011438004473286613
1372.6409261617616,0.000975095392537851,0.00032392072926415373,0.0006511746632736973
1385.775528985244,0.0023885092955311603,0.00025022411907306966,0.0021382851764580905
1402.9182188291393,0.0025865408992163897,0.000785073023068734,0.001801467876147656
1406.8805334258982,0.007236147969689277,0.0016096873821610043,0.005626460587528272
1408.7126265469374,0.003669075157237853,0.00047800567478145943,0.0031910694824563933
1412.4254924892996,0.001994870274586111,0.0013812753302669266,0.0006135949443191846
1419.9873259964213,0.006236608866818153,0.0008401782266602953,0.005396430640157858
1451.4880599730145,0.02188005316729013,0.0004980823564379392,0.02138197081085219
1462.7840071073078,0.028941207769677776,0.002725971945096965,0.026215235824580813
1473.8783545295346,0.019967035793662862,8.590428343012525e-05,0.019881131510232738
1479.6857775808521,0.030927397967309086,3.9073149147537924e-05,0.030888324818161547
1481.2997847844927,0.03827012811840069,0.0019080056357925687,0.036362122482608124
1482.6492329705288,0.04670911148118467,0.00044669112038509944,0.046262420360799576
1485.1757177122545,0.0287208652523637,1.9036176940534075e-05,0.028701829075423166
1489.8877670628565,0.006111368134187902,0.0001825369492137572,0.005928831184974144
1491.0839181480371,0.014029408973579644,1.175436488556074e-05,0.014017654608694084
1494.3275921682543,0.028029083956610218,1.2115020415520248e-06,0.028027872454568666
1501.5513280643006,0.0032038962682394466,4.1231304882255143e-07,0.003203483955190624
1504.1673050408479,0.0023555712620979127,6.225714762154485e-05,0.002293314114476368
1819.2037890338513,0.03736535408679022,0.013231555740050645,0.02413379834673957
3024.8075935946295,0.038756662354635416,0.0001017498028541957,0.03865491255178122
3027.1991799880716,0.22414727882616192,0.11015672080153166,0.11399055802463028
3028.114177016969,1.040803780827826,0.9406289813390076,0.10017479948881844
3029.3774391170705,0.9657162929718192,0.7969081088150105,0.16880818415680868
3037.177438053339,0.5369622555323088,0.3956416340523267,0.14132062147998214
3039.386700235642,0.031440669591615684,0.002015724907380428,0.029424944684235253
3042.3310998538004,0.3767630435507278,0.29944004193256657,0.07732300161816126
3050.4443084375275,0.8578470122556067,0.8527908006403303,0.005056211615276359
3057.7103200648626,0.430219530971072,0.07159193490590275,0.35862759606516925
3059.0754597913656,0.8447440398113718,0.8121132312763494,0.03263080853502244
3061.9534486778916,0.4132372709164045,0.21226214363173726,0.20097512728466727
3063.177662742592,0.821665430699015,0.4008787452084926,0.42078668549052245
3069.3971907446385,0.5612447284652649,0.4971249477749341,0.06411978069033078
3077.3116964717,0.05200879497544678,0.004023236040924301,0.047985558934522485
3080.9621683863134,0.40091307598001535,0.16810765508962813,0.23280542089038725
3086.61070619537,0.12102204796273654,0.020588829205050438,0.1004332187576861
3095.1599121130657,0.040561068441415854,0.03553795662361009,0.005023111817805764
3110.3063585094164,0.18770697575940792,0.008766585494067277,0.17894039026534064
3114.190946063275,0.12431842072197853,3.356438242953445e-05,0.124284856339549
3119.151805453959,0.20896873590376522,0.006282176498204483,0.20268655940556074
3121.8732204758476,0.36193572600672663,0.04678298959296075,0.3151527364137659
3174.2023978037682,0.27225689933280295,0.032985642684180604,0.23927125664862234
