frequency_cm1,total_intensity,isotropic_intensity,anisotropic_intensity
0.9231805358528129,0.0,0.0,0.0
2.4588693566116057e-05,0.0,0.0,0.0
2.0602907107395732e-05,0.0,0.0,0.0
1.771918210960177e-05,0.0,0.0,0.0
0.6702511967574327,0.0,0.0,0.0
1.798627657865682,0.0,0.0,0.0
14.84689191543054,0.0013501110473846812,1.6870939961598e-05,0.0013332401074230833
24.770700750310915,0.0009986547530900663,1.4121303211186149e-05,0.0009845334498788801
36.45504167871067,0.0013092028472552336,1.1028041743943892e-05,0.0012981748055112896
46.192339884708296,0.0008061012528658285,5.790361200280288e-06,0.0008003108916655482
69.63340685946497,0.0011465932091773428,8.85583789711899e-06,0.0011377373712802238
75.83370144983034,0.00011142278167370075,9.036643347908339e-07,0.00011051911733890991
105.56512772557812,0.0006639555208379042,0.0003321454587976961,0.000331810062040208
106.51283094479204,0.0007185008380526682,0.0003073876852230568,0.0004111131528296115
140.33580142859148,0.0008789713467509978,6.552250635104252e-05,0.0008134488403999553
149.64344072620918,0.0004653056000471509,8.386878756518138e-06,0.0004569187212906328
176.34911361860384,0.0022014275254761853,0.0020672061945954173,0.00013422133088076803
206.9324410612295,0.0008556737040904736,0.00023192858700171861,0.0006237451170887549
215.91171178659397,0.0008095069401837398,9.744222275431099e-05,0.0007120647174294288
245.11273344400146,0.005384414192263829,1.1249021756944662e-05,0.005373165170506884
251.63908238959831,0.002408948202717514,0.0018924819120709614,0.0005164662906465525
270.65669091028894,0.00025357743135410413,1.8825900948891373e-06,0.000251694841259215
296.877650837636,0.0035302372319881473,0.0031991390383227566,0.0003310981936653907
312.747715962854,0.0012884915489707984,0.0009282949338859905,0.0003601966150848079
354.38419019692765,0.001708566006495047,0.0012832877704067962,0.00042527823608825085
374.9430672409864,0.000396832198499039,7.693251504243256e-05,0.0003198996834566064
400.42725428897796,0.0011092263364696033,0.00016577745486224223,0.0009434488816073611
431.79450905655835,0.0028821521153652727,0.001478958199605963,0.0014031939157593098
484.64105592999454,0.0032903850524264246,0.0008392804141599959,0.002451104638266429
499.70550150469114,0.004582029480120726,0.0008080960647596636,0.003773933415361062
504.3686787955481,0.0019280109832284184,0.0009626880588162629,0.0009653229244121553
724.4394274485275,0.010234148944280782,0.008798282655942164,0.0014358662883386184
744.8629804341625,0.012971497637072137,0.010158453319665098,0.002813044317407038
755.409349146086,0.01943613942233433,0.017943863976257936,0.0014922754460763936
779.5607480852124,0.06651233412572782,0.06218629025077602,0.004326043874951793
788.8105844521472,0.008260492604270154,0.00577829092976452,0.0024822016745056344
815.7776942610192,0.039191919313406015,0.03145107193825808,0.007740847375147934
831.6898562396316,0.012792492010056679,0.0016457214749605084,0.01114677053509617
856.086968808427,0.028361046531324412,0.0041358399784180875,0.024225206552906324
885.9140374033611,0.008677087190962522,0.0001479867414662783,0.008529100449496244
898.5639894183614,0.019963676803664804,0.01568331879911703,0.004280358004547774
917.4124623303658,0.023558933964435338,0.01479798591100875,0.008760948053426587
936.8636793440419,0.03147492956191812,0.023800838303668928,0.0076740912582491955
950.7659782374782,0.02152948036335081,0.0092570396988882,0.012272440664462612
969.9494537690915,0.011199742489491028,0.0009582775569194002,0.010241464932571628
984.7273823905424,0.008647554727810196,0.00662381408427291,0.0020237406435372847
1004.1727902426169,0.02038037442303826,0.005141520527737339,0.015238853895300922
1037.8906423894748,0.016926306195887267,0.0031999932519113893,0.01372631294397588
1048.3456397230136,0.01471435416722925,0.0026085774439721598,0.01210577672325709
1054.9885282809134,0.024332160802895596,0.004576210848904704,0.01975594995399089
1073.371246841193,0.004804410867199927,0.002437200737781135,0.0023672101294187923
1096.3461297552556,0.017644138697376844,9.149547771982677e-05,0.017552643219657018
1104.313518625317,0.019287839545175874,0.0009727997484869545,0.01831503979668892
1111.0012819238796,0.005261679098467971,0.00018102861584580934,0.005080650482622162
1124.491881021258,0.0211399226286121,0.000220121244863162,0.020919801383748937
1128.8749539241157,0.017119950308870868,0.0011709263469203079,0.01594902396195056
1144.2050239075936,0.01757139467027727,0.00012655185142921405,0.017444842818848054
1152.4300267593194,0.014072579275267463,0.0012515942783678205,0.012820984996899643
1173.8877529040062,0.011099742692554931,0.008424240460715032,0.002675502231839899
1193.8063801277192,0.0049003592985718694,0.002962602679012125,0.0019377566195597443
1211.3626674414797,0.006696222699969866,0.000258907079269372,0.0064373156207004935
1231.7470768398607,0.003564463126491483,0.0002112398628585776,0.0033532232636329052
1242.6729085434445,0.006316377005827576,1.2073556319683392e-07,0.00631625627026438
1263.6199576398233,0.0033346213222719243,1.928855901903168e-05,0.0033153327632528926
1269.849622277774,0.008651592314754913,0.0028825174664494253,0.005769074848305488
1284.9710559857463,0.007391478788149488,0.0018102506477840432,0.0055812281403654455
1304.0265054521342,0.018149834152823095,0.0009008024169804591,0.017249031735842635
1306.8726762271688,0.01299517101865854,0.0046972119521210805,0.008297959066537458
1321.8274272526153,0.012796820857386851,0.0003260940572634162,0.012470726800123434
1331.2964359471785,0.04231272543289519,0.002517744563083307,0.03979498086981188
1336.0446788569836,0.06674040585134165,0.002034741055875437,0.06470566479546622
1343.2316656862286,0.034301988250835504,0.0006836741562596024,0.0336183140945759
1347.432021756469,0.005880633056434105,0.00019522965720573815,0.005685403399228367
1372.455060582229,0.005926059097298071,3.4873951280350515e-05,0.00589118514601772
1374.4939555659228,0.002926489918009338,0.00016079221814220852,0.002765697699867129
1380.4929420030792,0.004948629624072545,3.194242664854741e-05,0.004916687197423998
1384.285552199953,0.004416352392829451,0.00011931533100755952,0.0042970370618218914
1395.2695735038042,0.0039039516542541727,0.0006745099454837161,0.003229441708770457
1404.1468783218293,0.004204148838894641,8.63600914339347e-06,0.004195512829751247
1407.9370351579983,0.0017159390661228714,0.00015392972906516644,0.001562009337057705
1409.7708341230984,0.003771047143684233,0.0002871219548620149,0.003483925188822218
1412.7190771469689,0.0022975711233027283,0.0006924868710463073,0.0016050842522564212
1416.106155302774,0.005461121361932679,0.001652418683809068,0.0038087026781236117
1450.6632462500124,0.0019114511796768942,0.0007903143729417391,0.001121136806735155
1471.9385870333024,0.038754594054432524,0.00010899581692895292,0.03864559823750357
1476.3324125548427,0.046644573421229574,0.00017644478448113475,0.046468128636748436
1480.3994156821789,0.054222956894380045,3.556927398705687e-07,0.05422260120164017
1484.876102933281,0.01503434207452967,3.115141217084941e-05,0.01500319066235882
1486.2882354083752,0.04832432197012345,0.0008248928771706903,0.04749942909295276
1487.0396333255062,0.010077837744253528,3.01281683509434e-05,0.010047709575902584
1491.7129748668697,0.04066428060748981,0.0001568511199895699,0.04050742948750024
1494.1272005677235,0.008273918311911469,5.634564477054435e-05,0.008217572667140925
1495.1787439633888,0.011321334756766934,0.0006495831067324668,0.010671751650034467
1497.7936712913345,0.003939364094584685,0.0006224570373602444,0.0033169070572244405
1500.9776995653272,0.012436911648107684,0.00028462856867228053,0.012152283079435404
1503.4159496685625,0.007813037554109567,0.0005912311350541266,0.00722180641905544
1503.7304962766693,0.008773990128350012,5.0881069083217726e-05,0.008723109059266794
1510.3397518057966,0.025885581944498363,0.000667052550769892,0.02521852939372847
3004.973708977097,0.5736726270947466,0.45333194440680813,0.12034068268793849
3026.502065292062,0.32649211382138144,0.23449815429314216,0.09199395952823929
3029.973455538237,0.4158997676670374,0.2469145592667532,0.16898520840028416
3031.5373482440204,0.1920412921690089,0.0013734839004946222,0.19066780826851426
3036.101020852936,0.576499816536467,0.45464502800005535,0.12185478853641162
3037.3151452969264,0.07294382840732035,0.0001472837159030057,0.07279654469141734
3040.648739514832,0.40891462610852797,0.09456276805981807,0.3143518580487099
3040.9579700496297,0.7830471307869764,0.5632091157985376,0.2198380149884388
3045.1910745711407,0.38737750154165174,0.04773840216297213,0.3396390993786796
3045.6183021934926,1.3833468955289152,1.3444202675134997,0.038926628015415486
3051.6251342592695,0.20472376201397313,0.14715839781811388,0.05756536419585927
3052.6186880692794,0.8118389348192906,0.7575590343364966,0.054279900482793984
3059.946944698902,0.5640497169405672,0.40164050351252784,0.16240921342803927
3061.1548230663234,0.7286434421152175,0.5404476509567725,0.18819579115844495
3066.35838451638,0.41489827756999154,0.10780605741158239,0.30709222015840915
3073.7215414509337,0.30313712437274065,0.11304866271419071,0.19008846165854992
3074.64404586568,0.306253992074107,0.0985213068697949,0.2077326852043121
3076.877064675742,0.919534716807389,0.6954857667684721,0.2240489500389169
3078.1476289500533,0.7160530652226802,0.5263918903014592,0.18966117492122098
3084.78746871142,0.17712077795437225,0.014155588762160538,0.16296518919221173
3089.7203649207027,0.13811416832888646,0.09550442613494205,0.0426097421939444
3091.7176596908507,0.23000979204370947,0.004662896386466907,0.22534689565724256
3108.9118148593166,0.14356215099515232,0.0038382899038610246,0.13972386109129128
3110.6363571493685,0.3600020478622964,0.17348166555733757,0.1865203823049588
3115.475270041053,0.0955664983328548,0.00528134688405638,0.09028515144879842
3116.049292265959,0.2765389892355359,0.0889999529948939,0.187539036240642
3126.881357987956,0.22335982869900953,0.014618133587248148,0.20874169511176138
3878.6229443125685,0.6664285798150626,0.3885039278221148,0.27792465199294786
