frequency_cm1,total_intensity,isotropic_intensity,anisotropic_intensity
1.966618250231685e-05,0.0,0.0,0.0
1.6944369261975027e-05,0.0,0.0,0.0
2.4856672327966745e-05,0.0,0.0,0.0
0.8699546807801626,0.0,0.0,0.0
1.0125738824404593,0.0,0.0,0.0
1.9090318063793268,0.0,0.0,0.0
7.7883505434710685,0.0023003003168253927,4.411152733865372e-06,0.0022958891640915274
9.090321198471537,0.0005547740215667519,2.209676043214248e-06,0.0005525643455235377
19.431245220878612,0.0006198746898081528,2.6441150377040342e-05,0.0005934335394311125
22.63679574809877,0.0003477061281760211,7.592658375120189e-08,0.0003476302015922699
27.919282992855077,0.00039916390422152867,2.061909394842807e-07,0.0003989577132820444
36.06089466552579,0.00016819048762828798,7.647651900136172e-06,0.0001605428357281518
50.884443157725975,0.0004630640418461171,5.720489093703422e-07,0.00046249199293674675
60.239476213571486,0.0006105880889357141,7.622433913244728e-05,0.0005343637498032668
64.84180176685852,0.000298700222138842,3.5296414196445595e-06,0.00029517058071919743
72.07784621609208,0.0005113879535789855,6.44087508766092e-05,0.0004469792027023763
81.06390226996858,0.000371798799817428,0.0001444659608602317,0.00022733283895719631
98.05658759361773,0.0002528121764060724,7.476256176824523e-06,0.0002453359202292479
115.07127241124576,0.0006646106862650345,0.0003246012803684593,0.0003400094058965752
123.77902388582017,0.0008658609936645314,0.0005778297877989308,0.0002880312058656006
130.95786486389878,0.0014288694826990083,0.0012076929315078353,0.00022117655119117304
138.92932523502813,0.0010282464761607992,0.0005232979201718607,0.0005049485559889386
145.8772839891666,0.001218241949485392,0.0006725929039054454,0.0005456490455799464
169.50334803972987,0.00016517524732816163,1.3475282196012852e-06,0.00016382771910856034
210.17529980272076,0.00383351686787777,0.0033698404677390812,0.00046367640013868856
212.26214840144516,0.0012836241499315322,0.0002674497598092559,0.0010161743901222762
231.05562485336233,0.0027466763017310134,0.0021524905942087442,0.0005941857075222691
237.07513903119215,0.0006752547177071449,0.00036330643960728144,0.00031194827809986355
249.55353685514123,0.000735955443863037,0.0002366413774519611,0.0004993140664110759
255.70326463615734,0.0007655875884374664,0.000492618356137579,0.00027296923229988746
261.9840347220392,7.116423960024616e-05,6.119677205572739e-07,7.055227187968889e-05
283.2951280584436,0.0005368604763804419,0.00037344127154254986,0.00016341920483789208
289.1396522119007,0.006028833686845985,0.004783243626889631,0.001245590059956354
290.66642868646426,0.0014944226118674445,0.0011909577756737278,0.00030346483619371673
311.3612097357498,0.0027434163741782286,0.0017089786891339271,0.0010344376850443017
348.1656674587226,0.003121916695424534,0.00241039590300778,0.000711520792416754
365.35487383606306,0.0027835705235434473,0.001975936224643584,0.0008076342988998632
400.60494153807485,0.0010423350326025465,0.00010291763998244316,0.0009394173926201032
446.3066693110798,0.0017974705998202933,0.001145225265413986,0.0006522453344063072
476.67558090928924,0.0007924000108653433,0.00013431736364981592,0.0006580826472155274
524.336045742379,0.005672123736434687,0.00026012054431248346,0.005412003192122204
549.9527153361339,0.009276282650726574,0.00010739857672122422,0.00916888407400535
555.5709185118656,0.0037151104356944126,0.0018920851749776382,0.0018230252607167746
722.9230969627465,0.0010963312671682405,0.0006155345195432669,0.00048079674762497356
726.0682800228585,0.0018353080873569115,0.0005621175479283077,0.0012731905394286038
730.5594723900401,0.00825860992113887,0.004327770898809166,0.003930839022329705
737.9839724188507,0.009295522873586655,0.006422629431368376,0.002872893442218279
743.9791109488209,0.002824364479595519,0.0008289044434886771,0.0019954600361068416
746.6289572809217,0.0009957248979902045,0.0005448568254161828,0.00045086807257402166
762.4296807312314,0.015258845515092323,0.00993248495947589,0.005326360555616434
773.4786430914753,0.002378672721654892,0.0006439905387369369,0.0017346821829179555
793.1078295119498,0.001811708937807067,1.3228960857935216e-06,0.0018103860417212736
820.7513593683394,0.0651738989984747,0.05222190431992217,0.01295199467855253
848.1024235782634,0.06132107945562436,0.04476848260454021,0.01655259685108415
858.6373656656917,0.04066367934748961,0.032257047260373706,0.008406632087115904
869.063723727458,0.04780589327129925,0.008139816193809511,0.03966607707748974
886.5565200003615,0.020032585402716033,0.00929319911991715,0.010739386282798882
899.0593848525033,0.14395856104839716,0.09183003865525648,0.0521285223931407
917.1518453646542,0.01652882384660332,0.010320922655607153,0.006207901190996166
923.4767671809716,0.023250419865217167,0.006655876981867475,0.016594542883349692
926.0064888648388,0.0019988760085810527,0.0018571818762153445,0.0001416941323657084
948.5790915576165,0.01112545315731826,0.010309770733231013,0.0008156824240872461
959.8414961272213,0.00568103628060919,0.0024415666618072627,0.0032394696188019273
978.470386097738,0.002824629563839106,0.0008604922856988789,0.0019641372781402273
991.083673011332,0.009730908336258637,0.0024474179496732757,0.007283490386585361
1015.0286021474994,0.005867749961880566,0.0013655556145405895,0.004502194347339976
1021.9204603111403,0.0032341223886015145,0.00045072476175082415,0.0027833976268506902
1039.2567450004026,0.012747749405125434,0.0025158767564489354,0.0102318726486765
1041.7908821682113,0.002143045838359801,0.00028287940731362325,0.0018601664310461778
1054.1039129845735,0.004620252530725906,0.002899048202118484,0.001721204328607422
1060.1078678666445,0.03097842179532772,0.011782313547399509,0.01919610824792821
1070.1798306162932,0.0019485076146311734,0.00012917410680515098,0.0018193335078260224
1072.1659360906815,0.006512725832041502,5.065515133120681e-05,0.006462070680710296
1087.0228775686037,0.0012251300750382266,0.0007756594313893339,0.00044947064364889264
1087.586883852909,0.0020581138686132172,0.000776793965042908,0.001281319903570309
1096.4236720897102,0.008774339372279635,0.0007309259086527946,0.008043413463626841
1103.8312200594378,0.014871531445615984,0.00035109638206376513,0.014520435063552219
1112.0508727354481,0.08506903743920559,0.0001567620306838082,0.08491227540852178
1113.209749290681,0.03251369517750366,0.0029394433436739256,0.029574251833829737
1118.13918998985,0.03313247254589899,0.0009556126234067537,0.03217685992249224
1124.5666034009662,0.03511048818800168,3.348673188129527e-05,0.03507700145612038
1134.0043467379346,0.021127655674928365,0.0003745316551585456,0.02075312401976982
1153.32778026612,0.045450070137825024,0.028358313002900877,0.01709175713492415
1164.2164165452373,0.014502568432995154,0.0069130537530108106,0.0075895146799843435
1186.6722536425073,0.013204070453660153,0.003017154799726135,0.010186915653934018
1201.8218904687028,0.012377611458978293,0.004195497153635384,0.00818211430534291
1211.6276074366083,0.014972135726191958,0.01058509840198185,0.004387037324210108
1228.2619693365264,0.005183028233709978,0.003579908120730486,0.0016031201129794916
1242.7358414597845,0.003026345571414255,0.0018666321631871925,0.0011597134082270623
1254.6951432685717,0.007470573416151786,0.0036643569677723116,0.0038062164483794745
1258.4433242666323,0.0026711806686019407,0.0009478753758592832,0.0017233052927426574
1271.0443696145958,0.0008372869286509054,0.00036894718222697077,0.00046833974642393467
1276.578625816204,0.0036606202074013433,0.0003016618820800719,0.0033589583253212717
1287.0386982872958,0.0004343052750105143,0.00014964961989236383,0.0002846556551181505
1292.8244366752024,0.00483134815807717,6.273890558861218e-05,0.004768609252488558
1304.7260671288586,0.004290662607164139,0.00015610967113083426,0.004134552936033304
1313.0992570552703,0.012765234203176658,0.00023125955817966193,0.012533974644996997
1314.6551092762572,0.016413113691614238,0.00023870016079168712,0.01617441353082255
1317.1541651140135,0.01201669137943824,0.0004675723289210243,0.011549119050517217
1329.307084261214,0.0057810920984324755,2.9480424038146955e-06,0.005778144056028661
1330.7444999826998,0.020919991154277808,0.0001589598508750425,0.020761031303402764
1332.4566444875084,0.012432534556707373,0.002368424508076321,0.010064110048631052
1334.7028250568176,0.06251959040178619,0.00024322355724693497,0.06227636684453925
1339.4932458097799,0.06674639170675593,1.3594908011811419e-07,0.06674625575767582
1343.4482569488778,0.0265077278494636,5.850123463668435e-06,0.02650187772599993
1348.1878645417733,0.005627457285614031,2.506056987549112e-05,0.00560239671573854
1350.7342488218048,0.009538397009665439,2.481592973279963e-05,0.009513581079932639
1353.2945210995229,0.007936396560021205,0.00010053006311144265,0.007835866496909762
1355.2417227928918,0.027254285516793115,2.367172128057329e-05,0.027230613795512542
1360.7325644740479,0.017108167205996415,8.555931972204156e-05,0.017022607886274372
1381.5972495222659,0.013660594100843958,0.00048201978321061456,0.013178574317633343
1384.4917044761612,0.006562932760010538,0.0012586317182428542,0.005304301041767684
1403.775656811868,0.0049155139617116,3.755976163015219e-05,0.004877954200081447
1406.0393503108885,0.006385885491184554,0.00023390397516479683,0.006151981516019757
1407.2498980184973,0.011699044514654105,0.004869200755751647,0.006829843758902458
1408.6405352145161,0.004270432920044214,0.0019187381450337978,0.002351694775010416
1410.485629709656,0.005112493150963896,0.0014535545716006105,0.0036589385793632852
1411.4828390951193,0.0016819048292517438,3.8648394344727174e-05,0.0016432564349070167
1413.0959645898536,0.005610853302178354,0.0042723559209963315,0.0013384973811820225
1415.4976139603498,0.0030631622710303773,0.00047389388332944786,0.0025892683877009296
1416.66726065911,0.006322190566543541,0.002176042241025354,0.004146148325518187
1418.6424379422076,0.006207857365182831,0.0009585748997390809,0.00524928246544375
1478.6642136465507,0.03810782004682067,0.001946988246393712,0.03616083180042696
1479.0594307287324,0.0168675304382426,0.0037791533919241398,0.013088377046318461
1480.3241123374814,0.040091286368553754,0.0016117714522903576,0.0384795149162634
1480.7249893834962,0.009138349915019543,1.3620289769236761e-05,0.009124729625250306
1481.3285252144078,0.04183015633521784,0.0020193608256391304,0.03981079550957871
1482.4859134396002,0.04545230252245994,0.0004901663561629392,0.044962136166297004
1482.9964539177051,0.08572984762023068,0.001474579818699947,0.08425526780153074
1485.563227569363,0.013690049048412417,0.0008887669493240065,0.012801282099088412
1485.7701447285106,0.09100989705181038,0.002482577067725384,0.088527319984085
1489.6470171687845,0.0027111265880724465,2.8331669308325092e-05,0.0026827949187641213
1490.836680147591,0.015327764102362617,2.3815832052865563e-05,0.015303948270309752
1491.8356777364816,0.02877869936742838,0.0003617301215289885,0.02841696924589939
1493.382262878498,0.0039025741844804715,8.783700244951325e-05,0.0038147371820309584
1494.2970364658543,0.02671347316868804,8.769140332297603e-06,0.026704704028355744
1494.4305555256715,0.005079167002277213,1.005932706177341e-07,0.005079066409006595
1495.4738344297166,0.0035153934563275607,3.5375465486160264e-05,0.0034800179908414004
1496.6214724629622,0.0035572588478576736,0.00017461134023136936,0.003382647507626304
1497.790579485392,0.006136291256775575,1.4060828365738987e-05,0.0061222304284098365
1502.4813738938174,0.0014936366136500921,5.285710103581665e-06,0.0014883509035465104
1503.6038756277076,0.00757174442009541,0.0001544728794310911,0.0074172715406643185
1503.8510058110994,0.0067183502891812194,0.00014151906137854948,0.00657683122780267
1504.1725422602938,0.010357314669804609,7.85428906077253e-08,0.010357236126914
3023.9498850437267,0.7998120658727866,0.7174899270179761,0.0823221388548105
3024.2723805837923,0.4065673560977811,0.26267987472667187,0.14388748137110924
3024.5611234500307,0.2723332261437827,0.13458063314482344,0.13775259299895926
3025.431178746477,0.4365559412513019,0.31982918123934007,0.11672676001196183
3026.420591185656,0.2032992814407873,0.004633607755603626,0.19866567368518367
3028.309785866084,1.1153437819750014,0.9189414101680539,0.1964023718069475
3028.6987408368905,1.7249947454566668,1.6472641673294783,0.07773057812718837
3031.6432322681594,0.35738588960380246,0.34265326667858204,0.014732622925220455
3031.8862314863327,0.0712326793529888,0.0002883477117159821,0.07094433164127281
3034.0174270532752,0.06901707205871503,0.028213814663118092,0.04080325739559694
3035.8851693780953,0.22892545635330838,0.18867613217108134,0.040249324182227035
3036.2446923207344,0.10404470149547124,0.057788739669600415,0.04625596182587082
3038.9483632537376,0.0990898798319313,0.0841435387146377,0.01494634111729359
3039.96919442855,0.16231935450298127,0.11833686773381771,0.043982486769163553
3040.599938049817,0.7023654729475444,0.5701070065788292,0.13225846636871516
3042.5620639999083,0.4670046500218219,0.35353389017221143,0.11347075984961044
3043.612445198592,0.3663379186491066,0.27719285645041936,0.08914506219868726
3047.9004797063835,0.34446713560756737,0.21370366597279816,0.13076346963476917
3050.4085498297663,0.8847022377101804,0.8787469137067764,0.005955324003404051
3053.1816653119276,0.7082190900207245,0.6628869831451979,0.04533210687552654
3058.4828398347013,0.3423047061922593,2.112052611245669e-05,0.3422835856661468
3063.0663669664063,0.32383273322585304,0.1607207447673577,0.1631119884584953
3063.073384749982,0.35079430309805243,0.041166438146359716,0.3096278649516927
3068.193290223043,0.21077240225080748,0.0017834404492782887,0.2089889618015292
3071.8759416983603,0.2899706559532342,0.18788181604832757,0.10208883990490661
3075.1677239252062,0.3594170477059395,0.18006944543901707,0.17934760226692248
3075.9417504063595,1.285298090787606,0.7825291555694067,0.5027689352181991
3078.5247764776177,1.2277854957279704,0.9153558923054995,0.31242960342247084
3078.9071140062006,0.1407650579408867,0.0005600806217986707,0.14020497731908804
3080.7182072839655,0.49601235229000734,0.20424556794990711,0.2917667843401002
3084.9046084395477,0.8951661608514215,0.5424376326506855,0.3527285282007361
3087.794373750454,0.3305174099359993,0.12075434268800839,0.20976306724799093
3090.9833056374246,0.029881731787960865,0.002340261396104831,0.027541470391856032
3093.667802131737,0.0572080697398025,0.02181568768323484,0.03539238205656765
3096.236802215261,0.006875780329866994,0.0017590711093519382,0.0051167092205150555
3097.135664137702,0.012648286058263335,0.0007886371557739117,0.011859648902489424
3097.997157892912,0.03695336624927912,0.025321679762229037,0.011631686487050083
3100.1801222779677,0.05238715168884426,0.00022398491097704558,0.05216316677786721
3114.5061193050938,0.114055280495272,0.00025592591996667576,0.11379935457530532
3116.355906181569,0.33182431491048275,0.06824619486445539,0.2635781200460274
3121.740210192919,0.3783765054556833,0.05461486061396098,0.3237616448417223
3126.701313439049,0.19308128496514573,0.008201899835991983,0.18487938512915375
