frequency_cm1,total_intensity,isotropic_intensity,anisotropic_intensity
1.0316719905499452,0.0,0.0,0.0
1.694780809125216e-05,0.0,0.0,0.0
1.763278890944133e-05,0.0,0.0,0.0
3.6041999340517235e-05,0.0,0.0,0.0
0.4140531248069702,0.0,0.0,0.0
0.8085489277121639,0.0,0.0,0.0
12.551112596128455,0.00017421872001245823,1.5250785981292753e-09,0.0001742171949338601
18.916203898816644,0.0003092686203708394,1.0334173376869046e-06,0.0003082352030331525
29.9598873577439,0.001431131803065719,1.77455766782538e-10,0.001431131625609952
40.01647517703086,5.225447761762904e-05,1.3861332986017152e-10,5.225433900429918e-05
54.560753490136264,0.0009923843892797244,2.6092470451855597e-05,0.0009662919188278688
62.05366654274551,8.415778616142228e-05,7.819020745260632e-09,8.414996714067703e-05
75.89085797901528,4.438589262863959e-05,1.466749716483805e-09,4.438442587892311e-05
97.30733954989115,0.0004670984765259796,4.370403513509677e-08,0.00046705477249084446
102.18205606957703,0.005855623334144184,0.002381666323248532,0.0034739570108956513
112.86075372165818,1.227566975568306e-05,4.763854692622916e-08,1.222803120875683e-05
126.50489417571225,0.012176545614668135,0.00844829166106045,0.0037282539536076845
130.52466432245137,7.259839897180984e-05,1.5192395906358452e-06,7.107915938117399e-05
147.13458843037728,7.679271734115303e-08,1.61741587095983e-08,6.061855863155472e-08
157.52532877519707,0.00010529429296359641,2.203134575273382e-08,0.00010527226161784369
172.4856363510869,8.483399433462151e-06,5.012382370765568e-07,7.982161196385595e-06
174.7645189657938,5.307607314065934e-05,3.724723707773972e-05,1.5828836062919618e-05
174.94632270000508,0.000682367163907625,0.0005749913259319471,0.0001073758379756779
239.04539773358556,0.00035497404722339466,8.381272422083926e-06,0.00034659277480131073
246.29319317046233,2.126226959775774e-05,2.55232076730983e-11,2.1262244074550068e-05
262.9538166159715,0.0008406326975245652,1.551194811803122e-05,0.000825120749406534
339.25692171277336,0.0007873837625630238,0.00034258793815833936,0.0004447958244046845
363.98708000609776,0.008833432427595806,0.0059183236565254595,0.002915108771070347
428.3330381600832,0.0020022024567466898,0.0013587917552427458,0.0006434107015039442
454.1176349429726,0.0007414264898108352,3.1950732706628604e-06,0.0007382314165401724
502.2302302110327,0.00045311620639101944,0.00017201697391973334,0.0002810992324712861
513.3873710080088,0.0013930832132701262,0.0009014518402873491,0.0004916313729827772
686.1204286780534,0.14695204025655262,0.07532188919622372,0.07163015106032891
727.9464278196972,6.494923208822608e-05,2.1926184611998324e-07,6.47299702421061e-05
729.1338291619469,1.2091883464396664e-05,1.9863672526001422e-07,1.189324673913665e-05
731.6210435003284,6.730630518905908e-05,5.4751757953565795e-08,6.725155343110552e-05
736.4507132994704,1.0734297008793386e-05,1.2938550902113928e-09,1.0733003153703175e-05
746.2707279714256,6.957976164216247e-05,1.1092778176468142e-10,6.95796507143807e-05
765.0447515256484,0.0001443262413412145,5.6850193105920135e-09,0.0001443205563219039
794.1030371807361,1.753515427363843e-05,1.8983348542650523e-09,1.7533255938784167e-05
833.0466255299108,0.00041663544323344956,4.569599674458494e-11,0.0004166353975374528
878.0415573196738,8.7247678234781e-06,2.3799860930859774e-10,8.724529824868792e-06
908.2639961077837,0.03254053331721625,0.019824298554915427,0.012716234762300823
926.341684692961,0.0006463806607114438,1.1840314322080294e-08,0.0006463688203971217
974.1152472513716,4.405762888082641e-05,3.1555842724987716e-12,4.405762572524214e-05
1004.9903992947844,0.000981240082701721,0.0006791387980108557,0.00030210128469086543
1012.3785195408118,0.010089940361100926,0.004789133197132715,0.00530080716396821
1018.2813132168357,0.0006014856721109886,1.7719175048102658e-09,0.0006014839001934839
1029.31611515949,0.0040698455633080355,0.00042132298649586516,0.0036485225768121705
1045.002560237498,0.0031255996735297838,1.916886592889839e-05,0.0031064308076008853
1054.7405926277202,0.00022181690852231901,1.0052513074732402e-09,0.00022181590327101155
1060.0509668500908,0.013680048511886396,0.008238079817259528,0.005441968694626868
1075.1961920132642,0.0035690267703597208,7.188031706810225e-07,0.00356830796718904
1080.4797206549572,0.02737966539272791,0.00010351017278997137,0.02727615521993794
1087.8821691487176,0.058579351901900736,0.0003945668223359338,0.0581847850795648
1089.7716889832382,0.044671345600502954,0.0006015440813297195,0.04406980151917324
1091.5041442979275,0.002561316304199696,6.580341548272335e-07,0.002560658270044869
1092.1040305456825,0.00022901400820969653,9.303902066730893e-05,0.0001359749875423876
1092.5569213815245,0.004239570060403494,0.0004343068742611091,0.003805263186142384
1120.658728792621,0.0678356451293183,0.03415703226513103,0.03367861286418728
1156.4296261638465,0.23816399508118,0.13914374481688385,0.09902025026429614
1204.5968972959163,0.01461992555885082,1.9929989165287786e-08,0.014619905628861654
1215.1434945899473,0.014921166670363464,0.007525368478686723,0.007395798191676741
1221.077000136722,0.0010211372206203758,1.5254506327703294e-08,0.0010211219661140482
1236.2007973478665,0.011167642567916337,0.004537754490821268,0.00662988807709507
1244.9405069199527,0.0005362092571654825,6.474561685787059e-09,0.0005362027826037967
1258.9711636542654,0.008610974929572229,0.003378951497092314,0.005232023432479915
1269.8026683620742,0.00020249203322955038,6.371892808258689e-09,0.00020248566133674212
1283.2191725358603,0.005825552846124876,0.0027405475847138835,0.003085005261410993
1292.4525949361903,0.0024359201514912304,8.501309134587416e-09,0.002435911650182096
1308.9153715863108,0.006622754619679528,0.001791426046709615,0.004831328572969913
1310.6161455756605,0.0006415739927819195,1.770028479236936e-08,0.0006415562924971272
1323.1543627913313,0.07797757546916131,4.805479064508859e-09,0.07797757066368224
1325.6706287399375,0.0903700821205473,2.9240655138211983e-08,0.09037005287989217
1329.6941447738177,0.0013938545052244468,4.192577011539088e-08,0.0013938125794543314
1333.5373010069188,0.00025887712420392787,2.819414582779519e-08,0.0002588489300581001
1334.917532744779,0.00792845446047466,0.004256959900646862,0.0036714945598277987
1335.5280234393892,0.014464740076509424,2.067499313229445e-06,0.014462672577196195
1338.4876813562405,0.0001563868091091821,8.844797215645233e-07,0.0001555023293876176
1339.1663607095047,0.0005798307985764681,8.903948855765444e-08,0.0005797417590879104
1360.1628175158007,0.01028436933819787,0.0027240688564014954,0.007560300481796376
1382.3733723738374,0.008811776827471855,0.0046501784577659385,0.004161598369705918
1399.8120117084968,0.010975021216934687,0.002926107581370879,0.008048913635563808
1411.2609056964313,0.0020232633670457076,0.0004205622926291193,0.0016027010744165881
1413.4123698667972,0.0036663433837874505,0.002472247786135405,0.0011940955976520453
1418.8821447632045,0.010744944352495378,0.000537768907457867,0.010207175445037511
1420.5630139834323,0.005952108083252704,2.846794330644566e-05,0.005923640139946258
1421.6242035538837,0.000155367674698169,5.349222339455585e-05,0.00010187545130361316
1478.8406307841308,0.006622486750037003,0.0001349005474900217,0.006487586202546982
1480.237593501698,0.0016684732139679813,5.849475952564876e-06,0.0016626237380154164
1480.497717362557,0.006399137472914769,0.0002127474055896423,0.006186390067325126
1482.3116683038445,0.0007030127000348477,0.0003673486104341576,0.00033566408960069015
1482.6939318335124,0.0014256855707224037,0.00038379666453966754,0.0010418889061827362
1484.7893265481625,0.21452092517330124,0.014227165204085263,0.20029375996921597
1485.1981427196276,0.04944430417091648,0.009082620572013755,0.04036168359890272
1487.9062298247388,0.06623198451553279,0.007064880599757511,0.059167103915775274
1491.0998873158653,0.0014972919943871334,0.0011441499858263603,0.00035314200856077294
1493.755115496682,0.027063723089259563,8.758377551576702e-09,0.027063714330882012
1494.9593874326702,0.008558733454394276,0.0010150443304940413,0.007543689123900235
1499.0612990336413,0.0009975924712592767,0.0004097446314410202,0.0005878478398182565
1502.75810402944,0.0011737128755991096,4.733198741869017e-05,0.0011263808881804196
1505.5320337155365,0.0018910905959041665,0.00015503603123849435,0.0017360545646656722
1506.6364414925079,0.00035473439130910805,1.0693798679717134e-06,0.0003536650114411363
3021.5197653167397,0.038371186863569114,0.03374838672995366,0.004622800133615453
3022.098248661724,0.026439607939912284,0.02537354678995239,0.0010660611499598938
3023.4468358584068,0.22032089403391847,0.20347427449982886,0.016846619534089616
3023.9980525457995,0.1621062806306297,0.15956957393816815,0.0025367066924615674
3025.2567532886274,2.7062483089437173,2.6544440641610607,0.05180424478265642
3027.3348732492095,0.41403505654435735,0.4116409149959154,0.002394141548441967
3029.2288389089117,1.3910661699120064,1.3540708170656717,0.0369953528463347
3032.5342582585267,0.0013482922012195346,1.3545353821782869e-05,0.0013347468473977517
3036.6956509832376,0.18885162629369448,0.17530457810736508,0.013547048186329394
3040.352681496527,0.13538092744060767,0.12307940986031754,0.012301517580290137
3041.3187015044027,0.2664332669073404,0.24726219694852122,0.019171069958819224
3043.179388702553,1.320588988891412,6.091435036509526e-06,1.3205828974563754
3044.7456772061164,0.0812582462781282,2.3356403495894165e-08,0.0812582229217247
3047.42326840231,0.4032565244747636,6.969878926564551e-07,0.40325582748687094
3049.751254611221,0.9206600084467402,0.9132617737976264,0.007398234649113775
3051.4754512659183,0.030412947063440374,3.233679964084878e-07,0.030412623695443966
3056.3434963631453,0.2153081841637485,4.2922714256450447e-07,0.21530775493660595
3061.6660367297113,0.0009923544233867059,2.1221193595313057e-06,0.0009902323040271745
3064.210461521223,0.4479360125737282,0.43549745586942235,0.01243855670430589
3068.555525594613,0.10261326641260188,1.0784744255920767e-06,0.10261218793817628
3075.327785769498,0.012791891515075017,2.923147277846513e-07,0.012791599200347233
3081.4078731273366,0.06799276274736986,3.2376390096478566e-07,0.06799243898346889
3086.6101703610775,0.0018620983508684918,1.1083223474422488e-07,0.0018619875186337476
3090.3187235610676,0.011993164175754082,3.3870740426205285e-06,0.011989777101711462
3107.5897316189244,0.12050199173414715,1.943009405183043e-06,0.12050004872474196
3112.8066563223524,0.1292849973634767,1.1557505142634952e-07,0.1292848817884253
3119.2619087502744,0.436858947785584,0.3889013570296494,0.047957590755934594
3120.6190699117356,0.4079950031151053,0.061149155273753,0.34684584784135225
3180.2243015544586,0.16083742768282439,5.030489960835177e-08,0.16083737737792478
