frequency_cm1,total_intensity,isotropic_intensity,anisotropic_intensity
1.1239931582798965,0.0,0.0,0.0
2.8462671557740904e-05,0.0,0.0,0.0
2.767396685969382e-05,0.0,0.0,0.0
1.8010086602992442e-05,0.0,0.0,0.0
0.6597083919469985,0.0,0.0,0.0
2.141239534008578,0.0,0.0,0.0
35.26527358968224,6.844729854933437e-05,4.661305229867062e-09,6.844263724410451e-05
41.41865315544638,0.0027769884031959065,3.497494715519896e-08,0.0027769534282487515
89.51062572340633,0.00354633715051342,6.994452202742448e-10,0.0035463364510682
135.54718541057267,0.0016054013274063716,0.00019152084292202285,0.0014138804844843486
149.03542051328915,0.015467518203961335,6.203170747777389e-12,0.015467518197758165
225.6774102265336,0.0014706139947383416,1.9281207747962422e-05,0.0014513327869903792
229.56176830397857,0.000643256632511695,3.424330606234318e-07,0.0006429141994510715
230.06456125029186,0.0009624468760972965,6.676521055315165e-08,0.0009623801108867433
235.81248938000445,0.0015235569087792308,9.68589348213535e-08,0.0015234600498444096
261.9154854446023,0.007130928865322914,0.005637356006048322,0.0014935728592745923
267.5358444922343,0.0010688442981786146,3.6393621115483053e-06,0.0010652049360670662
272.85766398807317,0.0034072296454051385,2.019439977352433e-05,0.003387035245631614
303.72569277549263,0.02323585330516196,0.019894975180318426,0.0033408781248435346
310.24330907347314,0.00010206297962779502,1.8001103435302855e-06,0.00010026286928426474
313.9454273081339,0.009138050029678848,5.099125657255707e-05,0.009087058773106291
332.7703248218234,0.0007836192814887332,4.3007413490819217e-07,0.000783189207353825
335.88734288614734,0.004258841534838539,2.294228067601233e-08,0.004258818592557863
342.6081770206491,0.0014973258200027288,1.2224147766016813e-08,0.0014973135958549627
352.4231304516617,0.00044386824487914196,7.9810173173234e-06,0.00043588722756181855
378.996918965836,9.618461104722214e-05,1.4636855573481045e-09,9.618314736166479e-05
390.2346263616896,0.0032992164650217227,1.6200212913319526e-09,0.0032992148450004316
406.6601897743221,0.0014977483666115297,2.3293107801758613e-09,0.0014977460373007494
418.17085861677833,0.0008565485717233041,0.00020474136800535515,0.0006518072037179489
440.5324941830843,0.006184844022892511,0.001175375376394107,0.005009468646498404
529.6733644884365,0.007268085877369902,9.037862200391942e-05,0.007177707255365983
546.3778246660743,0.007671279767529857,0.0046904918325584456,0.002980787934971412
560.4698458916747,0.0011540918223369157,0.0001361677738516847,0.001017924048485231
572.9527928013896,0.09327071254465757,0.08971855231365493,0.003552160231002648
639.4237121247705,0.000656103110545542,3.552397565781671e-08,0.0006560675865698842
662.0904937920262,0.0025988829220187463,1.4920322661451497e-08,0.002598868001696085
740.9191438767267,0.0002050654730648649,3.7597505898730227e-07,0.00020468949800587762
786.8236657252634,0.008806849326458343,2.4195552843020184e-05,0.008782653773615322
835.2274842382873,0.0741369394942329,0.06627699086656401,0.007859948627668893
873.7477142340495,0.002361007371246951,9.342999429277615e-08,0.0023609139412526584
903.100159792477,0.004007626120564677,7.059082342839171e-08,0.0040075555297412494
918.4086249813599,0.002170578056918032,1.542795047407046e-08,0.002170562628967558
925.989515021104,0.0004630702852797834,0.0003256582560164569,0.00013741202926332655
946.0661080070885,0.0031186009095272222,1.0441048029186293e-08,0.003118590468479193
947.2834910307218,0.030572991235863115,5.517323315145266e-08,0.030572936062629962
954.4969454080365,0.01784961059429627,0.00019380353328503412,0.017655807061011237
954.7226564333813,0.016335270708927745,1.0254801424559471e-05,0.016325015907503185
961.8352964177611,1.981206521949831e-05,1.0714850913064597e-08,1.9801350368585245e-05
962.7565099689524,1.648089170105766e-06,3.1073115939038085e-09,1.6449818585118622e-06
988.8935261083764,0.010825228519544412,0.0085252352316374,0.0022999932879070126
1028.1054271754772,0.16945337616424283,0.14873683851985614,0.020716537644386704
1046.9677131137607,0.006810992607968372,0.0006224652407525166,0.006188527367215855
1047.8973257962202,0.006625097028839724,0.00034626759609761114,0.006278829432742113
1050.2974172034537,0.003851742149261591,1.0993458731487211e-08,0.0038517311558028595
1050.6359276071985,0.009063274594314769,2.5213493877034726e-08,0.009063249380820891
1149.9866459678067,0.00898518552276138,0.004268552590032032,0.004716632932729349
1160.9701875697215,0.004299626548448705,0.0010845840932649255,0.0032150424551837795
1195.3282365587675,0.014175738912107015,0.0033419644898982762,0.01083377442220874
1241.3052731128246,0.014031615555925876,0.0020208301598239045,0.012010785396101972
1242.4073692106874,0.07231648911348533,2.0420147364335603e-08,0.07231646869333797
1242.8905805960874,0.0060784580010239345,2.5331059891467888e-08,0.006078432669964043
1246.153609605417,0.034085465236289615,0.0004262114345135301,0.03365925380177608
1253.0248954887559,0.018416950505757108,0.0016251400539008783,0.01679181045185623
1287.3792390318313,0.016265119545243276,7.139851247329586e-07,0.01626440556011854
1316.939717860656,0.0121965217172545,0.004413360305080552,0.007783161412173948
1340.389850984758,0.00042530610299063064,7.446161035135781e-05,0.0003508444926392728
1364.2257539931538,0.07877331449196244,0.07162232773259053,0.0071509867593719115
1395.9563706774193,0.00021076833627486682,3.8554609895301523e-07,0.0002103827901759138
1396.8924071525291,0.0006009283161141567,1.6248290629054904e-05,0.0005846800254851017
1397.7960006345643,0.004918422413322563,0.004098360413248907,0.0008200620000736559
1400.6799987525626,0.003263261942546882,5.546048732246307e-06,0.0032577158938146356
1426.2997509726317,0.001651953140604831,1.8285558752836665e-05,0.0016336675818519944
1427.373432985154,0.004196711126514016,0.0013482089310484543,0.002848502195465562
1474.7376177224348,0.014071160917959213,1.4895222075615606e-09,0.014071159428437006
1475.5723433956243,0.00047479271944722204,5.13363365938079e-05,0.0004234563828534141
1476.1190653306737,0.011304658690431891,0.00634485056237826,0.0049598081280536315
1479.0917036253145,0.05087761483595126,1.2853425595333256e-08,0.050877601982525666
1481.0425959686556,0.0003898500604319236,3.962402586690637e-07,0.0003894538201732545
1484.9344539804285,7.209679088580868e-05,1.505225771995379e-05,5.704453316585488e-05
1493.0746232089505,0.08396473441964535,0.0009278221813704534,0.08303691223827489
1496.7291485756389,0.0038911051191483762,1.0174626250117122e-05,0.003880930492898259
1499.972750273757,0.03754491350121674,1.32688549912163e-07,0.03754478081266683
1501.0148538916976,0.0005946676868034843,1.8474127446707279e-06,0.0005928202740588136
1503.7426500534793,0.009675856555521918,0.0001679002498316621,0.009507956305690256
1513.6293358518276,0.0009809494064839986,2.4149928154568585e-05,0.00095679947832943
1517.1574401355788,0.03255385124848667,0.027077309227605716,0.005476542020880951
1544.1697633336034,0.007455881761373122,2.018154880688726e-08,0.007455861579824315
1667.3688486268516,0.09232456422025012,0.002700199272491652,0.08962436494775847
1691.7362543180052,0.04469249421705601,0.00018857893478066684,0.04450391528227535
3052.714867742095,0.02295999873551851,0.013704244356273692,0.00925575437924482
3054.0065989638492,0.022113841610389005,0.00947240869385491,0.012641432916534098
3054.4683860178225,0.03766285964443356,2.2997199558159467e-06,0.03766055992447775
3054.599582185297,0.016398634982813874,0.0010963711239456964,0.015302263858868176
3059.075247489995,1.5003275184630283,1.383713597529949,0.11661392093307917
3059.8401921330847,3.2404227231494627,3.13959034050711,0.10083238264235268
3118.958458820188,0.03861539595696672,0.006179674063766817,0.032435721893199904
3119.5732677288042,0.04523690815038454,0.0022730554882115935,0.042963852662172945
3119.8820682931405,0.035487686387007625,1.4781949556281647e-05,0.035472904437451346
3120.0897491835976,0.04307158008966304,1.8465096280602723e-05,0.043053114993382435
3123.8673359245677,0.14710219397774638,2.6761225387124817e-06,0.14709951785520767
3125.4741435582805,0.8217303240871574,0.006316878049498532,0.8154134460376589
3125.94480777879,0.8628890892920441,0.02061002994922989,0.8422790593428142
3127.3844623113937,0.07409651904275882,9.424624726464065e-07,0.07409557658028618
3132.154501750674,0.18123877941884556,3.6799735284491198e-06,0.1812350994453171
3133.13891805021,0.11835002388158619,2.3747237176903097e-06,0.1183476491578685
3134.171802250773,0.2539867231123952,0.000544901133928005,0.25344182197846715
3135.9362537838874,0.23963597075358828,0.0003454107376998261,0.23929056001588844
3199.5123442950644,0.21015388802632623,0.11515776958026433,0.09499611844606189
3202.385879999422,0.2821754033214231,0.2041879520931146,0.07798745122830851
3242.772884441463,0.2836647232466185,0.18311818843050173,0.10054653481611676
3866.320739688961,0.4609471204910681,0.3041909517556681,0.15675616873540002
