frequency_cm1,total_intensity,isotropic_intensity,anisotropic_intensity
0.4909957385575199,0.0,0.0,0.0
2.4972711607653395e-05,0.0,0.0,0.0
1.5068599133910246e-05,0.0,0.0,0.0
2.6420424584736328e-05,0.0,0.0,0.0
0.9095980864940082,0.0,0.0,0.0
1.3704286870365643,0.0,0.0,0.0
15.155162633012958,0.002019652333050349,9.077252920234883e-05,0.0019288798038480002
23.221542405637567,0.0028288061225498536,0.00014499575983228485,0.0026838103627175687
32.51647297504675,0.0059936640260107,0.00011428340623436497,0.0058793806197763344
40.21232990300705,0.007202259270101172,0.0002962450664297257,0.006906014203671446
43.24727360844936,0.0025271631316879767,0.0002580377960630375,0.002269125335624939
49.32941869166022,0.00247768576675882,1.635763931727944e-05,0.0024613281274415404
55.23969812889045,0.0024222352547266604,2.303847766450159e-05,0.0023991967770621587
59.31296531199484,0.0009393375727387136,7.164919349320498e-05,0.0008676883792455086
79.40743930091556,0.006733754194040728,0.001898569959601035,0.004835184234439693
103.95074982630706,0.0020204585126073994,0.00019931988471754688,0.0018211386278898524
119.2819454993633,0.003265146517075394,0.0006198912353406125,0.0026452552817347813
129.17325111868465,0.002051359965944869,0.00010685339265689651,0.0019445065732879724
159.5567357421407,0.0013074763702440489,5.549307292211464e-05,0.0012519832973219341
186.98826368128186,0.0052089168484420224,0.004877831750991234,0.0003310850974507884
190.63119324220673,0.008830900400497842,0.005503672753776418,0.003327227646721424
206.6796524006044,0.00040386765382976146,0.0001577009681273219,0.00024616668570243957
213.56300296581466,0.0007371876574757733,2.8909699333519324e-05,0.000708277958142254
219.65443973864055,0.007464370570641946,0.005908768664280828,0.0015556019063611174
222.38005273806496,0.0020427254152367356,1.1449576046614371e-07,0.0020426109194762697
239.99575054622608,0.0030215902478035518,0.001396348229457931,0.0016252420183456209
249.10048520098292,0.001751165612420376,0.0006717004478813299,0.001079465164539046
254.7575642541782,0.0021600775635254735,0.001399805080785066,0.0007602724827404075
280.7489076485688,0.0023154294341770263,0.0008281579270371105,0.0014872715071399159
289.44916694103637,0.0015224663351519336,0.00011624527909066945,0.0014062210560612642
302.7120682389243,0.0012554671784012806,0.0001085445129369918,0.0011469226654642888
321.6272015406204,0.0034156964959492706,0.00021860800519383523,0.0031970884907554353
334.09613488083465,0.006485468582445533,0.0017367434059869834,0.00474872517645855
356.40454637142665,0.0037953478077335893,0.0009545264262718378,0.0028408213814617514
370.6896877250139,0.01207788725086485,0.0047198750358603755,0.007358012215004475
391.1538134599382,0.01088999607377731,0.002422211816845721,0.008467784256931588
397.6795100048551,0.003019851045557683,0.0001297300638991335,0.0028901209816585495
432.53658617857246,0.007121555001788015,0.00017461668644991907,0.006946938315338096
453.8167721180149,0.002400736210576939,0.00027083558793740946,0.0021299006226395295
462.4556531607014,0.005730291289822204,0.003405098616680325,0.002325192673141879
469.91438459876946,0.002257586723520128,5.482593345509057e-07,0.0022570384641855774
495.6108755540235,0.011405342357591542,0.008346113961205198,0.003059228396386345
498.5371853091389,0.0212122726797361,0.017659495120600485,0.003552777559135615
520.9628476357087,0.020357436821545918,0.013607503646543038,0.00674993317500288
554.8242780605997,0.030857925764822228,0.027278597898200804,0.0035793278666214233
567.2449017722926,0.0010420873568029536,2.1195381828900193e-05,0.0010208919749740534
572.6005477767894,0.002423140021365084,0.0011301311958074017,0.0012930088255576821
579.960145638103,0.003029374350185528,0.00013194436669872233,0.002897429983486806
616.5021280246907,0.003978495992561249,0.0012372506243199127,0.002741245368241336
635.7929589101619,0.0067352039093343165,0.0020248575973949943,0.004710346311939322
642.8078522661222,0.006079467546588185,0.0003972381803040247,0.005682229366284161
669.1444076490508,0.005596929061299084,2.3068394571561676e-05,0.005573860666727523
690.3477647911684,0.02154402671099513,0.019106629509318834,0.002437397201676298
732.491627904104,0.012685673023995158,0.00827750613726295,0.0044081668867322074
736.1593598926057,0.09324279111091299,0.08248537577530901,0.010757415335603975
748.0089865143716,0.035091598648451745,0.034103777648193306,0.0009878210002584374
764.5962980072555,0.003663840573981042,0.0018170342364407497,0.0018468063375402927
802.4711200960071,0.009688614882817092,0.00416935126890349,0.005519263613913603
807.830610891318,0.005460024446359728,0.0022600278388031623,0.003199996607556565
813.350759351679,0.004345504560546292,0.00015629570122661414,0.004189208859319678
827.3131454891327,0.003925377290364111,0.0011983599680161852,0.0027270173223479257
845.7063287418673,0.0024282999440057174,0.0003654965423747552,0.002062803401630962
850.7464646299538,0.0050963492899795725,0.0007494559343310005,0.004346893355648572
858.1553970327616,0.038666646116097034,0.03739226647534127,0.0012743796407557646
868.7537093467034,0.005101578222542369,0.001957204754860295,0.0031443734676820743
882.9593612106399,0.009857483290884471,0.0020283310215285875,0.007829152269355884
895.6255775347499,0.030690108060833998,0.022247731659458102,0.008442376401375897
931.582477216014,0.017337805531118973,0.00922576266726992,0.008112042863849051
937.5419107831895,0.009963981788371818,0.005004320241458977,0.00495966154691284
948.8943569272668,0.0033396496632594986,0.0010150544749644665,0.002324595188295032
956.1911236816755,0.006915495993642893,0.0005695161301883996,0.006345979863454493
978.4961800513867,0.037385026827511464,0.026037422869566344,0.011347603957945117
985.3556249019222,0.0032702136445112604,0.0019673164498521965,0.001302897194659064
991.3345420330214,0.0400564158248883,0.030510676477053647,0.009545739347834656
998.7611894637142,0.02018239771638227,0.0002723371453530079,0.019910060571029262
1015.2398653770041,0.02999789244012904,0.0036044205578955137,0.026393471882233524
1026.005505902688,0.021123482033324995,0.00265278659125244,0.018470695442072554
1034.3937194058205,0.04138755594813137,0.016200288377701454,0.025187267570429914
1049.3430499573803,0.014637981863617491,0.0017664592051563235,0.012871522658461167
1051.0257529659946,0.011220758620955599,0.0026554058193605213,0.008565352801595077
1068.1502186721682,0.010828108500713389,0.00014423400791250415,0.010683874492800885
1076.868799420096,0.017302778837544455,0.013395184947015758,0.003907593890528698
1080.6986612849687,0.005421708590348778,0.0036669436141189638,0.0017547649762298134
1094.3220934355104,0.013860733091855362,0.00995005970755914,0.0039106733842962215
1103.4082632302357,0.04811250373243531,0.04475514560308817,0.003357358129347132
1105.3382092011052,0.007297784570257856,0.0008005472864865995,0.006497237283771257
1110.3900233319812,0.002859996003582568,0.00030775256996146583,0.002552243433621102
1111.8386207467765,0.00509386513623796,0.0011462875565989524,0.003947577579639008
1122.9136508548736,0.00484443780108976,0.0005177986569773344,0.004326639144112425
1132.566934640782,0.008521991695456674,0.0015936386918721757,0.006928353003584499
1150.3468923626995,0.01922594738998426,0.007604595979461098,0.01162135141052316
1158.7582588241758,0.018686383012522314,0.011970529401015284,0.006715853611507029
1164.9516113790328,0.01499243381612138,0.00031344439214530035,0.01467898942397608
1175.2397683527058,0.00892620104371473,0.0012623385162465154,0.007663862527468214
1188.1009909134407,0.033634152980143286,0.0007270387089126397,0.03290711427123064
1190.5660216898548,0.030960880170196305,0.021754541576913314,0.009206338593282988
1207.356234584662,0.01353096319855918,0.0041590355590317915,0.009371927639527388
1208.525779437819,0.013998763621678,0.007012372681362753,0.006986390940315247
1234.5849601167931,0.005836009084884732,0.0006529138729616036,0.005183095211923128
1236.4690711555527,0.016651001236124886,0.008356042017880962,0.008294959218243924
1248.6051923648663,0.007692656996639566,0.00014010057388315355,0.0075525564227564125
1254.432297029598,0.01665212796888358,0.00017426529055726493,0.016477862678326315
1265.9471354760376,0.09449245770810849,0.06811714502402477,0.026375312684083715
1274.5856808177784,0.06475252263656373,0.022562886634949826,0.0421896360016139
1285.2160077000713,0.020448388060211348,0.005934362546984637,0.014514025513226711
1286.249883261298,0.05664122076258843,0.041619770306864125,0.015021450455724304
1294.1010073347898,0.021118172507183754,0.01694161106105546,0.004176561446128292
1299.8235676768406,0.006645403258153949,0.00031726989642164553,0.0063281333617323035
1309.3813565734229,0.09765139667017736,0.06889442750578209,0.028756969164395275
1311.0245988534737,0.012268139927364072,0.005670358609358268,0.0065977813180058045
1313.9234164218622,0.01164435058573314,0.000310174367479772,0.011334176218253368
1324.6066852211186,0.016126428612363373,0.0045842682614945654,0.011542160350868807
1327.321731592814,0.005196040783262259,0.0032861240733044585,0.0019099167099578002
1335.7287751620213,0.024551599849938353,0.004107213990251769,0.020444385859686585
1345.8565477916413,0.023119516682629505,0.009095887284236631,0.014023629398392874
1357.4483449765773,0.004356737232961856,0.0019308633214269193,0.0024258739115349368
1367.3900995341194,0.004856208549194343,0.001183527517076583,0.00367268103211776
1372.5424290463475,0.03994872698249446,0.02354320706786971,0.016405519914624748
1379.536153307703,0.004310470912666149,0.0005153991911109204,0.0037950717215552284
1382.1939921314295,0.030870269332267813,0.00013382908904651026,0.0307364402432213
1389.4113330894113,0.0392682894649253,0.015704922525820217,0.02356336693910508
1391.3904891004354,0.03794129299871428,0.0026873112044795357,0.035253981794234744
1396.3923693875888,0.03846813205280002,0.013306378916022184,0.02516175313677784
1401.7697633213445,0.011435620204592357,0.000902570372159126,0.010533049832433231
1414.4595500733408,0.0016426378660484159,0.0003423107471525895,0.0013003271188958263
1420.2494167788843,0.004213526038449902,0.001965403060352981,0.002248122978096921
1429.0310652914495,0.011126685909061674,0.007063538977614295,0.0040631469314473785
1435.9048521710818,0.020500582139887452,0.0016137065652011668,0.018886875574686286
1466.1376925065815,0.028531807883968845,2.6319580259144983e-05,0.0285054883037097
1472.0416278857265,0.01024613318343437,0.0037975514564498676,0.006448581726984501
1478.1540469276804,0.03719564559254032,0.0004409963304960036,0.03675464926204432
1479.7822061177144,0.036084969491182395,0.001730803079541358,0.03435416641164104
1487.8545440280006,0.014926357551720466,0.0023654543731590387,0.012560903178561428
1488.1159001279934,0.030028572198438096,5.7740785433515594e-06,0.030022798119894743
1493.5902541380603,0.034007322190942275,0.0004935917977584395,0.03351373039318384
1494.6340699036134,0.028390396716006006,0.000772786452120664,0.02761761026388534
1495.4540229510765,0.013462085102494603,0.0008325757359780479,0.012629509366516556
1496.9730098964126,0.04862062777888859,0.0019506723733484497,0.04666995540554014
1499.3297012717433,0.01603122803870759,0.00023017687046289888,0.015801051168244692
1500.3825434232967,0.0045778574567250565,0.0002505975838866282,0.004327259872838428
1508.6444742838767,0.0008897759957694256,4.676455084656746e-06,0.0008850995406847689
1512.5425624686404,0.006935263350111638,7.566908008664425e-06,0.006927696442102974
1515.6150596011732,0.020909844693490057,0.0073837925813808125,0.013526052112109246
1552.4435897238502,0.006011273039899093,0.000248052760193661,0.005763220279705432
1662.4098540140901,0.08468291454148517,0.03057756894946792,0.054105345592017254
1689.4208945541454,0.2418977945699691,0.03378925676437703,0.20810853780559208
1827.6128318516535,0.1148659011107793,0.04740092048112928,0.06746498062965002
1844.3619626588395,0.026608198116251095,0.02011735696358546,0.006490841152665633
2984.626620258966,0.021319648065225592,0.007104749401599896,0.014214898663625696
2990.657179072467,0.6530173438257203,0.49712341118465525,0.15589393264106502
3031.0128639301697,0.552758500905672,0.467398924391695,0.08535957651397699
3032.577714974441,0.03269360501420098,0.0010948513557762067,0.03159875365842477
3041.5697906210034,0.8436010430230488,0.7764933597419399,0.06710768328110897
3048.8455075622755,0.0738480872554052,0.009890116363134423,0.06395797089227077
3067.2185138717314,0.11190594578539706,0.029450711182825526,0.08245523460257154
3069.6983472954053,0.8289104662265038,0.7863972261728389,0.042513240053664816
3073.271630947004,1.2656771895716212,1.2291494247418053,0.036527764829816
3075.5279503483102,0.3316057340072713,0.28142819828390736,0.0501775357233639
3077.950456722311,0.08753483664394046,0.007110720991693034,0.08042411565224743
3081.3148694535994,0.554185832190666,0.5339281770828767,0.020257655107789346
3086.5710979967566,0.8134326486810888,0.665541034306326,0.14789161437476267
3094.213607624303,0.7658214538486992,0.642950035078652,0.12287141877004715
3095.6879117727453,0.4632033852404259,0.22922905877332445,0.23397432646710148
3100.7803645343424,0.1922764942593104,0.03778306573399484,0.15449342852531556
3105.4967335890556,0.4202803184018207,0.17362530422136074,0.24665501418045993
3108.074283559518,0.28685273961942737,2.6135801415883586e-05,0.2868266038180115
3110.335492887121,1.0353788275909994,0.9287454913193397,0.1066333362716597
3112.749193593731,0.2630450834723206,0.13167759487275182,0.13136748859956876
3121.958878273138,0.2984583042873717,0.11027083493592438,0.1881874693514473
3133.6715799241783,0.3088141875947322,0.030886069916568806,0.27792811767816344
3140.247088054648,0.26293645237727625,0.03330792598150674,0.22962852639576953
3142.688834042415,0.37295118818814943,0.018248523540078374,0.35470266464807104
3142.7425278886426,0.31495424533956945,0.019488365050742078,0.29546588028882736
3146.9885803810125,0.2241189993648534,0.0038832822559931642,0.22023571710886025
3147.069814873758,0.12209685896096682,1.2773658029509938e-06,0.12209558159516387
3155.2852610489804,0.18496543982207025,0.011210258851480385,0.17375518097058987
3161.1766566841634,0.06228171152475312,0.002923488279012426,0.05935822324574069
3213.86968415223,0.11242533872923988,0.038972731956134155,0.07345260677310572
3215.20930141821,0.42674373529805293,0.1734779319443142,0.2532658033537387
3229.6182092673102,0.7543115944341949,0.591089134948134,0.1632224594860609
