frequency_cm1,total_intensity,isotropic_intensity,anisotropic_intensity
21.278899841535562,0.0031369140878078684,2.7893045408780573e-06,0.00313412478326699
1.3079131669827464,0.0,0.0,0.0
0.8833286400111274,0.0,0.0,0.0
2.5837057136944397e-05,0.0,0.0,0.0
1.0420052031161332e-05,0.0,0.0,0.0
1.694286981754442e-05,0.0,0.0,0.0
1.320712596234503,0.0,0.0,0.0
19.88298423630594,0.01078852356544578,8.297592232014753e-05,0.010705547643125632
32.83507208535502,0.0026743277240510303,8.469574590164019e-05,0.0025896319781493903
49.794221521534226,0.0052741971011589115,0.00031742972885127056,0.004956767372307641
55.133376731419226,0.0068492094188754155,3.8224341620337594e-05,0.006810985077255078
72.70244669396155,0.0011928881621636803,2.4079283096271053e-05,0.0011688088790674093
86.25577873435387,0.0029462732335643386,0.00011891523224637286,0.0028273580013179656
103.75593990705755,0.004608033056753051,0.0005130760849255934,0.004094956971827457
141.79710416934833,0.0034703825132455478,0.0007541173093397634,0.0027162652039057844
150.806670761461,0.002713194689977904,0.001434529815978052,0.0012786648739998522
170.55983769640855,0.0021032700813078,0.001274812480444109,0.0008284576008636912
217.34314243860896,0.003220268841416551,0.00025739932411046677,0.002962869517306084
220.2122073290849,0.009204301606897804,0.006233934739739911,0.002970366867157894
246.10189109739744,0.00014298687608173407,1.094345103689675e-05,0.0001320434250448373
256.9233727639206,0.00531347369349543,0.001571535135419671,0.003741938558075759
271.22353934343954,0.003983372155963193,0.0022195019026126743,0.0017638702533505184
280.9859405300725,0.0019091869842449965,0.00034226056367951907,0.0015669264205654774
312.1224433967839,0.009845636658823455,0.003895992689661203,0.0059496439691622514
326.5015387334424,0.01786980897967279,0.014453451058123193,0.003416357921549599
359.12521412588603,0.009701797721326733,0.0005010405041505528,0.00920075721717618
402.28320040695115,0.0040952630494557555,0.0010660336295617852,0.00302922941989397
415.49337068328924,0.009201200272904364,0.0037910244696757744,0.005410175803228589
428.5319141526234,0.0005777950422908303,0.00014999346624100017,0.0004278015760498302
455.2691516326306,0.008095243943925622,0.0019760088892622207,0.006119235054663401
489.2463858478692,0.003665630368939489,0.0018005276379648692,0.0018651027309746194
522.8635868439605,0.0030836970541050428,0.00030260342006470305,0.00278109363404034
538.3036583909308,0.002360609640496415,0.0008494889157475517,0.0015111207247488633
573.1540137917854,0.002473643584339366,0.0006406653024327932,0.001832978281906573
651.0242311272967,0.02390571680601283,0.0005224767199700601,0.02338324008604277
715.6054128552179,0.032720597008397405,0.030608084979933683,0.0021125120284637205
751.1488772016515,0.07305539043639803,0.05939380892640433,0.013661581509993706
762.384555822269,0.0050652214987837755,9.740296972258523e-06,0.005055481201811517
800.239424310217,0.010733487431642763,0.007425581775784386,0.003307905655858378
816.3023549574542,0.00235197629507802,0.00047761592652436973,0.0018743603685536503
824.2939914229676,0.00041060624622519176,0.00018711816629028678,0.00022348807993490498
837.5882647209291,0.0028343855752975323,0.0018013644362487873,0.001033021139048745
841.2142273105488,0.03908046176807525,0.01384018709778995,0.025240274670285303
845.3483101039832,0.012639187120475293,0.005628455990160331,0.007010731130314961
867.0938980339367,0.15722665115257475,0.14003892285153074,0.017187728301044
875.9131870296998,0.0019114815735166183,0.0001266322346228376,0.0017848493388937807
953.2681300933031,0.013862188105352492,0.0019046642567914897,0.011957523848561002
979.4447427311325,0.0009382396047358021,9.494584697624132e-06,0.000928745020038178
990.4046613392625,0.0059470604724017155,0.0007424726681312143,0.005204587804270501
1000.1720026934947,0.0003497404657048959,2.5133432309508898e-05,0.000324607033395387
1038.9474394583103,0.005137049798847696,0.0027898291775452803,0.002347220621302416
1079.020106949346,0.026862943428483776,0.00019690640387205158,0.026666037024611726
1093.1919003739895,0.011438953771181516,0.005113870409320461,0.006325083361861056
1103.3848102678357,0.030725737913072062,0.016024252442980693,0.014701485470091369
1122.9607178761414,0.030532178359501054,0.021083891394842028,0.009448286964659028
1126.738972051771,0.01856970521682599,0.007386311295884966,0.011183393920941023
1130.7680347902703,0.024029924758033054,0.017132154925405964,0.006897769832627089
1151.3261420469323,0.017912207837791207,0.009050922191653658,0.00886128564613755
1172.3256141148643,0.0023245236544876587,4.448766573601086e-07,0.0023240787778302987
1182.6939582918474,0.0032140937213067915,0.0003487342043983052,0.0028653595169084865
1194.0476699283493,0.0010089452008815614,0.00022540139099900338,0.0007835438098825581
1207.5088549784523,0.02159011727057537,0.018620845602038985,0.002969271668536385
1212.4070004504606,0.04012589759075924,0.02921821046245879,0.01090768712830045
1219.3900303941539,0.01422493227064308,0.010166813446978982,0.004058118823664098
1281.6151542906314,0.04105112309193604,0.025498333047025937,0.0155527900449101
1296.2162433647336,0.2307969556177685,0.1663850654340527,0.06441189018371579
1308.7120231143424,0.030375197479738086,0.013641615624436866,0.01673358185530122
1318.9198886831175,0.028018919449416688,0.0006047416212387826,0.027414177828177906
1328.6034337170504,0.05832364128871895,0.03369529858231337,0.02462834270640558
1334.1377676055788,0.009226365017036412,1.2870340738206351e-05,0.009213494676298206
1349.5367019996797,0.008373258971222493,0.0008200756319253673,0.007553183339297125
1397.3424795325443,0.0051294654960527385,0.00043445230334171757,0.004695013192711021
1400.5733094939944,0.0011217914849573467,0.00017030127674408127,0.0009514902082132654
1425.4566037256436,0.009523668830421668,0.0070665851360055655,0.0024570836944161033
1427.4186634349903,0.00143969613579803,8.022874805786274e-05,0.0013594673877401673
1440.8656970135007,0.03441616850714746,0.0014193303113457173,0.03299683819580174
1474.3610338428934,0.007883963208299434,0.004013743431741837,0.0038702197765575967
1477.469248825314,0.02413838029239824,0.00018559426208589444,0.023952786030312343
1478.283232126493,0.017059944062078974,0.004818590650764718,0.012241353411314255
1482.0398412538011,0.03431308276535812,2.1530225503774734e-05,0.034291552539854345
1492.4040755892022,0.03964678952566642,0.00011057822667197295,0.03953621129899445
1493.9224795574,0.02819606501151381,0.00030333521296434945,0.02789272979854946
1502.8357283995329,0.036301725502524834,0.0005911296206248164,0.035710595881900016
1505.6666635808067,0.02289371429972175,0.004905368903952095,0.017988345395769656
1519.876003327872,0.01187821437027771,3.9758629739181533e-07,0.011877816783980318
1521.9054258479293,0.013668987104571075,0.00010263313196478525,0.013566353972606289
1566.0560817489345,0.003986582385288654,2.7728751008285833e-05,0.003958853634280368
1657.5066241242357,0.02129077638561104,0.0006929190021929807,0.02059785738341806
1694.5280457627798,0.3241083226050481,0.062151806870923657,0.2619565157341245
3037.722044495469,0.8013776417698881,0.7732669237811204,0.028110717988767797
3058.2922136863313,0.5530502575296996,0.4725207067613043,0.08052955076839535
3067.352470695337,0.9712854327064385,0.8773846736061403,0.0939007591002983
3072.495906465953,0.7986813375923905,0.7709990445789684,0.02768229301342212
3075.2972678558735,0.6649357864635477,0.6003521058249142,0.06458368063863357
3080.6187394193107,0.5328030380436307,0.45983841785974694,0.07296462018388375
3098.594263190457,0.22140925592507757,7.397662982258594e-05,0.22133527929525498
3101.9107375273416,0.24841974288399107,0.001039483748918017,0.24738025913507306
3126.6735610890587,0.15281988810728628,0.00026715782691473625,0.15255273028037153
3129.8725132934924,0.4955734851203306,0.1451056709868262,0.3504678141335044
3136.144096103881,0.287807593346132,0.00031348137412722297,0.28749411197200475
3144.271647144114,0.2661135059791065,0.002695839455006571,0.2634176665240999
3154.034323906832,0.11730337584555658,2.4273894276307004e-06,0.11730094845612896
3161.4972123497964,0.050540601046598424,0.00776119306289905,0.04277940798369937
3163.835841516123,0.725924141736037,0.23377166493340504,0.49215247680263197
3180.4961355598953,0.29970091111098074,0.13161843419250643,0.16808247691847433
3216.912827396102,0.10753539417780933,0.03368628049257196,0.07384911368523737
3220.3166356496613,0.640576334284048,0.40556983615132974,0.2350064981327183
3240.8675869028243,0.5170013318119006,0.3690680394347378,0.14793329237716274
