frequency_cm1,total_intensity,isotropic_intensity,anisotropic_intensity
1.2975879510997206,0.0,0.0,0.0
2.1566888532905465e-05,0.0,0.0,0.0
1.5298331896167452e-05,0.0,0.0,0.0
1.1001807918962722e-05,0.0,0.0,0.0
0.6788670590170071,0.0,0.0,0.0
0.9674516199272081,0.0,0.0,0.0
10.375913157107757,0.020991693595170113,1.0609742778328048e-06,0.02099063262089228
11.256114688339387,0.025089963323393416,2.09068971431943e-06,0.025087872633679096
15.973129595158968,0.010780397308375763,0.0001488989798838766,0.010631498328491886
18.145442194357823,0.02689097789904966,2.6701321466724358e-05,0.026864276577582936
19.15722729876771,0.031928771519683596,9.016454721699983e-07,0.03192786987421142
41.34016004664147,0.0017856387817144,2.9945019496261033e-05,0.0017556937622181389
81.65864517265285,0.00785723135184476,0.005585982398071583,0.0022712489537731763
114.12152302078329,0.004164175176347893,1.8480453457609973e-06,0.004162327131002132
116.292713311214,0.0033768052211322753,3.796649814828676e-05,0.0033388387229839884
184.03893107089044,0.01743215258983782,1.0053074793507733e-06,0.01743114728235847
185.21210911078293,0.015867096784695257,1.0173996896578535e-07,0.01586699504472629
221.46959548554412,0.009125752260473857,0.008838131399454066,0.00028762086101979034
268.16976668008647,0.0073689646395093365,1.5503195584330524e-06,0.0073674143199509035
271.3574731617618,0.007326049446078106,7.216614490869886e-05,0.007253883301169407
312.0743624904661,0.0035550031179881177,0.0012568720440102345,0.0022981310739778834
366.42728798188097,0.0035097630467399313,0.00034706285390270026,0.003162700192837231
372.0139368349239,0.003212996194723881,1.28210975670573e-05,0.003200175097156824
397.2606404682172,0.020613465953433583,0.01649123263075224,0.004122233322681343
422.94044756842766,8.589830549926149e-05,2.7847619975057775e-09,8.589552073726398e-05
422.9903660939045,7.4437188324798e-05,3.5792144623900744e-09,7.44336091103356e-05
423.35362626268164,0.00015937518897819367,2.120815274713847e-06,0.00015725437370347982
494.4062139243899,0.0012268904532613586,4.427257772289045e-06,0.0012224631954890696
496.63503757863543,0.001455477457849231,1.3996891682094342e-06,0.0014540777686810214
517.5266152863405,0.010128206327178844,7.2906893512512956e-06,0.010120915637827592
519.5272295743231,0.009310047238680194,6.1659219556942365e-06,0.009303881316724499
522.045551939961,0.0015995256101007434,0.0001950597839199017,0.0014044658261808418
591.8531490131737,0.00869914760908818,0.003516574758630156,0.005182572850458024
597.2236055811211,0.0019393434030148392,4.609737995207482e-05,0.0018932460230627645
597.5827518045469,0.0018707852169814116,1.189082268353569e-05,0.0018588943942978759
630.4352317338063,0.006866727695612229,0.00029566511301913655,0.006571062582593093
631.2128900273991,0.02199626898947361,5.138782594896012e-06,0.021991130206878713
631.2439470217324,0.022575912185996996,1.0403693501946697e-05,0.02256550849249505
712.4071595218118,9.732222133104112e-05,1.5874181198263203e-07,9.716347951905848e-05
712.6080631339543,6.23800885837291e-05,5.599660838423546e-06,5.678042774530556e-05
713.0307019081191,7.94848132114925e-05,1.9025858178356036e-06,7.75822273936569e-05
747.7560402893465,0.09755675317664919,0.09506337121773949,0.0024933819589096975
778.2775108698306,0.006526274560075317,9.479821657128144e-07,0.006525326577909604
778.5190729471885,0.006966561636851859,1.7418877275298427e-06,0.006964819749124329
793.9469285992463,0.030865445803456463,0.030319504842561924,0.0005459409608945387
801.1478075552683,0.006904597803962761,0.0004600395243428684,0.006444558279619893
801.393111948437,0.00676323834066264,7.513825739493445e-05,0.006688100083267706
855.0542760866522,0.003260801362998795,3.6512098096056694e-06,0.003257150153189189
855.381974007594,0.0033718440878988776,3.165974992481117e-05,0.003340184337974066
855.8586929836525,0.0026859593722873823,5.126061566788118e-05,0.002634698756619501
938.3602247029188,0.021244195236960188,0.02108001616756087,0.00016417906939931507
941.1061223311789,0.0003687020811632761,2.423728894317333e-05,0.0003444647922201028
941.6530970781032,0.0003668340021287253,9.47255530021155e-05,0.0002721084491266098
960.7133074502851,0.06152045622091049,0.05906943350230759,0.002451022718602903
998.4936750659158,0.0043309006504781925,3.096653744006909e-06,0.0043278039967341855
998.903709943079,0.003606513181080707,7.0960825288758726e-06,0.003599417098551831
1001.17771407608,0.0007490598003650142,0.00016297080038364263,0.0005860889999813716
1001.9445422568164,0.0020018655018316915,1.6733299419469612e-06,0.0020001921718897447
1002.5342974389802,0.0013759286956682298,1.170583100858994e-05,0.00136422286465964
1026.3702452401267,0.018976815148612967,0.018584260277103734,0.0003925548715092327
1026.8795275759164,0.0014301482800276272,0.00029764617214158375,0.0011325021078860435
1026.9752003069957,0.001686359847375506,0.0006083600510503641,0.001077999796325142
1030.039239449486,0.4847367858930772,0.48163712718319673,0.003099658709880519
1030.937500766873,0.06331278392941955,0.036820964917706,0.026491819011713557
1031.27922046629,0.027084862198132158,0.0002958474011105006,0.026789014797021657
1058.538018802935,0.016785412379367468,0.00013241016872489263,0.016653002210642576
1058.7353791677424,0.024870366343349926,0.00878545094149864,0.016084915401851287
1059.477672528521,0.14927952689541676,0.14838443752640085,0.0008950893690159292
1106.1567668095308,0.0023536211208614512,0.00018219209749035698,0.0021714290233710945
1106.48811769333,0.0025690334389264105,0.0002956280005488778,0.0022734054383775327
1106.767428631551,0.001907661711455196,7.45168534694628e-05,0.0018331448579857331
1174.9682174606583,0.01789170815772949,2.4292297152169177e-08,0.017891683865432335
1175.104079141573,0.018671025084945912,2.737881327441657e-06,0.01866828720361847
1175.1913832182997,0.012525394096953085,6.8149522277981265e-06,0.012518579144725287
1188.5666567374642,0.01589190128508175,0.00045393930915585743,0.015437961975925892
1188.8513452922105,0.015368350324959541,0.0002582332078317607,0.01511011711712778
1191.0438792168375,0.09231023693698037,0.06093203234015506,0.03137820459682532
1222.674328749972,0.027041291020714096,1.5464189582292343e-07,0.027041136378818272
1223.2009847448367,0.027070328742013948,2.8252099211974383e-05,0.027042076642801973
1268.4550635420273,0.39695923383478965,0.39648537708005555,0.0004738567547340804
1309.419460361022,0.004914030601561047,0.0036846354525358104,0.001229395149025237
1309.7437809317144,0.002648986510437496,0.001537542764578216,0.0011114437458592799
1309.7938550280255,0.0033347088635130896,0.002323730099435513,0.0010109787640775767
1328.4244432428718,0.02264958397195424,0.014879028182964823,0.007770555788989418
1349.7477730792534,0.007168104528376582,5.698997052249722e-06,0.007162405531324332
1350.181710458068,0.0067547828342883875,4.088774362349621e-06,0.006750694059926038
1358.0488010441113,0.012549803933813115,0.00032222139679401125,0.012227582537019104
1503.6337064618765,0.013098508895261379,2.4395557684638983e-06,0.013096069339492915
1503.6894445517278,0.008461573937266383,4.278620056622523e-05,0.008418787736700158
1503.826924206574,0.006840131957678833,4.678210737853609e-05,0.006793349850300297
1536.0328076675835,0.001393769112356759,3.3047444190813115e-06,0.0013904643679376778
1536.1933314000216,0.0015202538679048188,3.518391403573683e-07,0.0015199020287644614
1541.6881171607547,0.006815270106499598,0.00676998732511782,4.528278138177813e-05
1669.8481189587446,0.07654645351961592,0.00022585419259410556,0.07632059932702182
1670.3079563775534,0.08105126973089528,1.953322566842783e-05,0.08103173650522685
1672.924790196747,0.16550571163602934,0.018934043867662793,0.14657166776836655
1677.1012204463623,0.07318498100684526,6.651809273154804e-05,0.07311846291411371
1677.291450240721,0.07469189260286516,0.0003945890519565423,0.07429730355090862
1678.6828783355918,0.10208779380093139,0.0334265617693132,0.06866123203161818
3200.664469313878,0.19550142197048329,0.01096051137813983,0.18454091059234345
3200.9111809983324,0.16392307425700514,0.006996845742571575,0.15692622851443355
3200.991933246612,0.29418002884989974,0.029889075137064056,0.2642909537128357
3210.90889775947,0.4641636007921255,0.0013373971488400524,0.4628262036432854
3211.0764053604626,0.45414116063513055,0.0009750058266708249,0.45316615480845973
3211.235267202784,0.43810180319705766,0.0010195479313496495,0.437082255265708
3221.805237330727,0.3695254643856892,0.15423712379628757,0.2152883405894016
3222.1277892427493,0.3792767502325592,0.15840260893838973,0.22087414129416946
3222.341089473012,0.7034638604525489,0.5780458510734502,0.12541800937909872
3230.895440277579,0.6772461185679725,0.5239877321520771,0.1532583864158954
3231.3924994797803,0.2001668486392545,0.05356371623143591,0.14660313240781858
3231.4832052377137,1.69259582518879,1.5428522501003847,0.1497435750884053
3245.6832046130094,0.3891725798055143,0.2943221233827012,0.09485045642281309
3245.970646799808,0.3982610139900964,0.3034710131431495,0.0947900008469469
3246.5238509822093,0.5068134215968565,0.4397282212932614,0.06708520030359509
