frequency_cm1,total_intensity,isotropic_intensity,anisotropic_intensity
1.5578699911367273,0.0,0.0,0.0
1.439881054000372,0.0,0.0,0.0
1.9224209945651143e-05,0.0,0.0,0.0
1.7302774773661014e-05,0.0,0.0,0.0
8.339129390979055e-06,0.0,0.0,0.0
1.154462605626707,0.0,0.0,0.0
7.893760013367804,0.00970364021774081,3.296694904777479e-05,0.009670673268693034
24.020052349952692,0.008259121340637684,0.0007352326795590423,0.007523888661078643
28.121404653452927,0.0032785895605247505,9.303920070564381e-05,0.0031855503598191065
31.2126817214205,0.0026353717022367523,0.00013589127900867466,0.0024994804232280777
36.99975469177865,0.0026760409311124755,2.2439499017998096e-09,0.0026760386871625737
58.82185821919657,9.843094813532996e-05,4.024018812566678e-07,9.80285462540733e-05
68.19514767273908,0.0034908629400758184,0.0006560144821962791,0.0028348484578795395
89.88238680731253,0.006842367105211802,1.707047930337316e-06,0.0068406600572814644
93.30755534430185,0.009912945806072175,0.0005423498149900295,0.009370595991082146
133.7616532978998,0.004657541349768946,2.654149238773256e-05,0.004630999857381213
159.11574663918122,0.001043317050997134,1.6510378849960266e-05,0.0010268066721471738
160.64700246595424,0.0009506720834493899,1.4770236966170376e-05,0.0009359018464832195
166.00137983422627,0.007359254349199381,1.9052450731306134e-06,0.00735734910412625
175.00902665718655,0.005563501059105545,0.00018957551446819717,0.005373925544637348
181.5133476576823,0.001066394627915021,2.758945400796014e-07,0.0010661187333749413
191.96278563264903,0.0008254163373292756,6.117098022695089e-08,0.0008253551663490486
199.26569220881723,0.004063237272893295,0.000228662425123896,0.0038345748477693984
211.7918818873751,0.010833017016333917,0.0006504085624885401,0.010182608453845377
221.21205831615512,0.0002948465419451606,4.063921769435225e-06,0.0002907826201757254
238.39832337980295,0.014752092221299255,0.0021327819804641845,0.01261931024083507
263.99911250754985,0.0017236747669251127,1.5790333964617861e-06,0.0017220957335286509
272.70897013473643,0.0016101288137460406,2.6003875995742194e-05,0.0015841249377502983
273.8722839962104,0.014508073272312589,0.0058693362974191815,0.008638736974893407
277.79479522733243,0.005206165855111454,0.0021997386122333744,0.00300642724287808
319.8736698441972,0.000172113460046947,8.47732192047486e-08,0.00017202868682774226
336.30124344202073,0.010359425934726354,0.005833567679160569,0.0045258582555657845
344.60526930775484,0.0022224818796403377,7.173768400584142e-07,0.002221764502800279
346.95710874557494,0.0060656354433128125,8.726154780065749e-05,0.005978373895512155
359.2317586089668,0.0020992685421525287,2.0756865289797458e-06,0.002097192855623549
363.72152886220687,0.016134249138043653,0.009268194869252776,0.006866054268790877
370.30298360871865,0.0004813233683038875,1.6872613619865433e-05,0.0004644507546840221
370.5858894363394,0.0011839351136756454,0.0003562329235163043,0.0008277021901593412
387.2794684296168,0.006256396079615654,5.211295580728953e-08,0.006256343966659847
397.51116916646686,0.0003707192665840573,9.577244216025266e-08,0.00037062349414189704
406.7836271821162,0.0059894875037674366,1.2717246814967509e-05,0.005976770256952469
424.32405719975446,0.001441010838531522,1.9153197792578903e-05,0.0014218576407389431
427.1176422481746,4.8363117774049564e-05,8.486021096054774e-08,4.8278257563089015e-05
434.2219284644332,0.002615813934927012,2.6953956151990823e-06,0.002613118539311813
435.6094408856182,7.812989798776792e-05,2.2063949937731976e-05,5.606594805003594e-05
476.26458201601395,0.008447737218480657,0.0026674803784781835,0.005780256840002473
476.59587889723286,0.05325425115201972,0.030711510835312105,0.02254274031670761
517.2503635098966,0.01090371314407268,0.0008651925150363899,0.01003852062903629
528.8511737070804,0.0035091925749208192,9.873176692146366e-06,0.003499319398228673
556.6140180596301,0.13336333215503687,0.12774397912413366,0.005619353030903213
579.0194747874783,0.001177192204194723,8.70195339008484e-06,0.0011684902508046382
591.1122484946648,0.0066436207881413745,3.6905808172831623e-06,0.0066399302073240915
600.8584955038486,0.009405822287992938,0.008236769572760384,0.0011690527152325545
606.0917166829671,0.0012487295885687322,2.6010605122525293e-05,0.0012227189834462069
611.6876704830128,0.006979960603215604,0.0012308156779927268,0.005749144925222877
619.2016998270265,0.009397602975577655,2.0532833033807076e-07,0.009397397647247317
699.9417459818876,0.0628940951567509,0.03798653881129962,0.02490755634545129
777.7537534923645,0.0006498385110703871,2.2044160308585834e-06,0.0006476340950395286
784.5893971825217,0.09539950004504712,0.08659650994329013,0.008802990101756988
795.2221694863047,0.00014648561548549177,9.588513904573577e-07,0.0001455267640950344
806.9904590731417,0.00860290849710535,0.00022681386921389067,0.008376094627891458
820.1845972703061,0.0109370401937641,2.463309185535187e-07,0.010936793862845547
832.5858513304911,0.007871427506800331,0.0012262076098550196,0.006645219896945312
899.6405847226757,0.002532855612212654,1.0834795728164041e-06,0.0025317721326398373
900.9070672575897,0.001827827716890999,0.0003332779708439012,0.0014945497460470978
921.8770075584063,0.000493098138526796,2.476768136985533e-06,0.0004906213703898105
923.124190343603,0.06181890363010179,0.0608283729879403,0.0009905306421614968
937.8252681018474,0.005476519245929791,8.912583924270312e-06,0.005467606662005521
941.7060944835201,0.016751568710480298,0.0009017712338587011,0.015849797476621595
942.5974852578098,0.02331099912485367,3.7141951115454317e-07,0.023310627705342517
951.5030129084344,0.03935211457083086,0.03759169055335209,0.0017604240174787739
953.1095398214069,0.0271701028062707,8.021443045379024e-05,0.027089888375816912
956.5455006513085,0.024450590867247532,0.010428467300453702,0.014022123566793832
966.3254943952587,0.000910406644795102,5.53417781975586e-07,0.0009098532270131264
971.3030802959915,0.0012145992289369523,0.0002020069285525168,0.0010125923003844355
971.4324532869555,0.0010605975488694331,0.00019687665932069574,0.0008637208895487373
990.0647162171178,0.07873782376868563,0.0732092705840637,0.005528553184621929
1001.617098099468,0.006772559577890872,3.070989845069482e-06,0.006769488588045803
1026.0658694061838,0.0028219340125378847,4.3119789180329056e-05,0.0027788142233575557
1032.538847659122,0.005737450571689203,1.1898564431972902e-06,0.005736260715246006
1045.9644803851281,0.004275721254725761,0.00020013480020525376,0.004075586454520507
1047.7943072631024,0.0037420470440346788,1.6754346218475376e-07,0.003741879500572494
1057.2529863003551,0.008723675189987134,2.3261877496361553e-05,0.008700413312490772
1057.2741417091854,0.010171085299556175,4.318593464773795e-05,0.010127899364908436
1062.6450359007804,0.0021590124364961687,0.00041191383110934234,0.0017470986053868263
1062.7145454919553,0.003770096867250844,0.0010558940177756806,0.0027142028494751636
1153.6901305863034,0.03724855750463354,0.035922291784693375,0.0013262657199401605
1162.404146071297,0.001563678449118992,8.850111323726548e-06,0.0015548283377952654
1171.4777576665701,0.023327648679283844,0.020429828946874874,0.0028978197324089697
1200.4428344580933,0.0016881428572386432,8.010358996921486e-07,0.001687341821338951
1211.033732661916,0.013707189945567388,1.993232893081914e-05,0.01368725761663657
1222.6974214002548,0.03781717859817182,1.6395862917541775e-06,0.03781553901188006
1228.9706808403064,0.013866616414670812,0.0027215101669461257,0.011145106247724686
1237.900140784743,0.04092240028108307,0.00018524158292048778,0.040737158698162586
1238.1043877725006,0.03877873649339412,0.00021688121765107627,0.038561855275743046
1265.1862823561019,0.003582786969856949,3.561433336272366e-06,0.0035792255365206765
1266.7193059089018,0.0135263750048975,0.0009445892940541216,0.012581785710843377
1274.6201490343155,0.058564295996391624,0.042248825807192046,0.016315470189199575
1278.2736854574832,0.0034059899780499057,0.00021446762913776741,0.0031915223489121384
1294.003986036688,0.009069239348761422,3.875697312221295e-06,0.009065363651449202
1316.6511878985807,0.021754084098638986,0.0011998904973621676,0.02055419360127682
1327.8735048963945,0.008968702494172975,5.319924664638749e-05,0.008915503247526588
1339.35830262764,0.053386561336972754,0.03604454291606016,0.017342018420912594
1344.6413279606377,0.0018893376533127694,0.0007817882086268231,0.0011075494446859463
1347.5630122987848,0.1044384748775333,0.08950133810939676,0.014937136768136537
1357.9250612027658,0.018718343836708288,1.492438929228856e-05,0.018703419447416
1401.1931034988665,0.0022046579273133655,0.0002512295852307675,0.001953428342082598
1401.206626251461,0.000849143761553936,3.0486431579845133e-05,0.0008186573299740909
1410.9382104807676,0.00019834473788130669,1.3885103974790656e-05,0.00018445963390651603
1410.9486962032852,0.0018739591525875707,0.0004452878007102746,0.0014286713518772962
1414.9083769430474,0.0029566613258274134,1.8935835925225257e-05,0.0029377254899021882
1414.9691497580452,0.06715970363624807,0.041313703565050534,0.025846000071197542
1435.9431190932257,0.002194548560863684,5.013880416738938e-05,0.002144409756696295
1436.009605407955,0.0007166730804056377,4.03996416442511e-06,0.0007126331162412126
1465.498707624456,0.011264269097342142,7.1302233959775686e-06,0.011257138873946164
1466.878086577259,0.014004887350630742,0.0019232856398553775,0.012081601710775365
1475.8808409633396,0.004363097284585265,3.651997832124306e-07,0.004362732084802053
1475.9183770798352,0.0062497550908329,2.269995905484897e-06,0.006247485094927415
1481.3184655899722,0.08435759520177988,0.0056081225437094925,0.07874947265807039
1486.125951279582,0.0014044861691268876,2.156642321403392e-06,0.0014023295268054841
1486.5288914009518,0.06970845074930845,0.00010952781685357398,0.06959892293245488
1487.6157859953485,0.04237247579447026,5.5379687263169476e-05,0.04231709610720709
1488.4567332215818,0.03385533103810214,7.591821273131467e-05,0.03377941282537083
1490.4461909517274,0.020677636294762332,5.042597011388369e-05,0.020627210324648447
1490.7002879418424,0.02143121047867222,8.584181082427283e-05,0.021345368667847947
1495.6950492902592,0.0020916159318164844,1.3572000180303787e-07,0.0020914802118146814
1497.9475800613056,0.03056634418015644,0.001409749716266397,0.029156594463890042
1504.2172225795532,0.04023470945820799,0.00014252965874929753,0.04009217979945869
1504.3553673986803,0.042131313946597415,0.00015287744259937191,0.041978436503998046
1512.7263436166058,0.0061855249057718815,1.6609277462024463e-06,0.006183863978025679
1514.6390235249096,0.018554600343768567,0.004441002117313689,0.014113598226454877
1520.2229889411851,0.009193536180712406,0.0013527869117765832,0.007840749268935823
1520.5166589672983,0.03606400461008247,0.023320667198516807,0.01274333741156566
1525.2385408465666,0.00868256778973741,8.153854031840915e-06,0.00867441393570557
1531.4749628657814,0.014080890621047885,0.0002533228332948401,0.013827567787753046
1672.8814882347785,0.023236315679709952,2.8701203316073997e-06,0.023233445559378344
1679.759381628023,0.12146867862463098,0.021307225408357187,0.10016145321627379
1688.243770358604,0.04283005040039434,4.933546097402276e-05,0.04278071493942032
1688.5013335172855,0.11499215165505314,0.00016059599633947282,0.11483155565871367
3050.470700372174,0.7021293848293473,0.6110676130231381,0.09106177180620928
3050.643952167751,1.739440691542783,1.6032602751001361,0.1361804164426467
3059.0979139918372,0.01414896779232569,0.00128483474508629,0.0128641330472394
3059.257590624958,0.015873649626340136,0.004016566522643783,0.011857083103696353
3060.5227043714085,0.06076428731776684,0.028576452721254964,0.03218783459651188
3060.8044924449205,0.05698833934467952,0.02546389032881839,0.03152444901586113
3065.978872931537,1.940570930977673,1.816065691285141,0.12450523969253212
3066.1931309043803,2.9245889929823896,2.7735041688648794,0.15108482411751006
3095.679617747597,0.6839764751937707,0.6302945599216802,0.05368191527209051
3107.4243056673736,0.3399066814142123,0.020392363273239372,0.319514318140973
3108.2612415277254,0.3370535790964936,0.02551080737891271,0.3115427717175809
3125.614995850091,0.040284619283120715,0.001448597481030024,0.03883602180209069
3125.8125169779296,0.04024715950015202,0.0016048158210803124,0.03864234367907171
3127.2936713083895,0.039364550283063265,0.0006296099484738967,0.038734940334589366
3127.4804864424823,0.039524277046836385,0.000510024531019583,0.039014252515816805
3130.466920246889,0.2510600215114448,0.0005862505369737717,0.25047377097447104
3130.5257215407833,0.28815530101935166,0.002214773897154678,0.285940527122197
3132.3641680350556,0.45247567157144786,0.004132993101098258,0.4483426784703496
3132.630183762269,0.48375051946985825,0.005179795556021432,0.4785707239138368
3134.917415727052,0.38775460688323016,0.005086881133196407,0.38266772575003377
3135.17035064842,0.3544556913517281,0.00486490024932303,0.3495907911024051
3138.278318773076,0.20904767193775706,0.0017444675223570374,0.2073032044154
3138.4021110361145,0.20368654487794438,0.0025278027306230586,0.20115874214732132
3140.007157863832,0.2444004253268401,0.0007434658020916723,0.24365695952474842
3140.057632214954,0.28234143470855777,0.0013268419789410945,0.28101459272961665
3140.1558532087442,0.10431381793267987,8.147173504499203e-05,0.10423234619763487
3201.2756607407305,0.12423130969614508,0.043364170018210024,0.08086713967793506
3201.7094897421384,0.4519132228713557,0.28350564919446086,0.16840757367689485
3224.649907481042,0.2668844277915784,0.16293653014077022,0.10394789765080815
3225.1456851591875,0.30760740244638307,0.2248598545516597,0.08274754789472337
3913.8322386105615,0.03902304987483983,0.002188783011275678,0.03683426686356415
3914.9826868814953,0.57188627410038,0.4580997330256876,0.11378654107469229
