frequency_cm1,total_intensity,isotropic_intensity,anisotropic_intensity
2.231054974275488,0.0,0.0,0.0
0.643355690872256,0.0,0.0,0.0
8.808500450042566e-06,0.0,0.0,0.0
9.728592458169474e-06,0.0,0.0,0.0
2.0658993485110545e-05,0.0,0.0,0.0
0.14688459522962527,0.0,0.0,0.0
8.466825559275867,0.031709626138269865,0.000609827069246509,0.031099799069023357
28.878894342248618,0.02211843860527938,3.436468673764432e-09,0.022118435168810707
31.022412851382345,0.021264029487896206,5.487514347780717e-07,0.021263480736461428
72.25261787396171,0.0014918475569297887,2.2083865090355828e-05,0.0014697636918394328
74.28454563719309,0.002294020935005652,4.061986617588251e-05,0.0022534010688297695
118.32769769018952,0.0013266547288355306,3.8213763130267636e-07,0.0013262725912042278
127.14358019704922,0.0013703388686546665,6.97854025943062e-06,0.0013633603283952358
129.97904114435303,0.0020536147279885423,5.537948480972992e-05,0.0019982352431788123
131.85370124107877,0.009876540326366591,0.0008962526701136469,0.008980287656252944
193.28368152729337,0.005403551874580685,0.002880394607825689,0.0025231572667549964
228.92696302175383,0.006373496927443527,0.0017503446826607387,0.004623152244782788
239.0674373806068,0.010120396246742484,4.623180440384951e-05,0.010074164442338635
246.31099405667024,0.005861705153251296,0.0013767659680012099,0.004484939185250086
278.2787863247888,0.02259181001927331,0.01390864383375685,0.008683166185516459
294.4875037760517,0.00631548313601738,0.00011171185752590588,0.006203771278491474
305.743058770847,0.004740302989992298,7.010260591735269e-06,0.004733292729400563
320.43477189995116,0.001975916367812906,1.1548562131015098e-05,0.001964367805681891
360.99411688642084,0.005778367445588741,0.0009201627456334595,0.004858204699955281
390.3883824903098,0.023972939182485633,0.013715638476959054,0.010257300705526579
418.50068206425516,0.012079350460011556,0.006492049760402489,0.005587300699609068
423.242090436632,0.0001073099800000303,2.4267563993290404e-05,8.30424160067399e-05
428.06240823797117,0.01880487032973424,0.01320733795233995,0.005597532377394293
498.4400219852428,0.010619438579508079,0.007837897681032414,0.0027815408984756644
518.0208146689133,0.008217030826800493,0.005330709088366373,0.00288632173843412
525.0115666956293,0.0022626030966191764,0.001297219251042746,0.0009653838455764304
530.5926271391521,0.0017576549490976683,0.0004187906813031608,0.0013388642677945074
611.2660728740535,0.008795780123309078,0.00010384988582661913,0.008691930237482458
639.9189661271573,0.04531357248947309,0.007355260398417191,0.0379583120910559
645.3550552626436,0.032054708717714236,0.0004658355170741353,0.0315888732006401
661.6112089984383,0.014826231774329835,0.0036107890946036458,0.01121544267972619
722.244696420993,0.006786130488746036,0.0007455575675147832,0.006040572921231253
725.9822223717777,0.0313492620349094,0.017672634836429595,0.013676627198479804
775.5273204121889,0.007981721936858019,0.0012780071044045569,0.006703714832453462
783.7640637531448,0.017205093470848625,0.015200818407021118,0.0020042750638275078
818.6280448246615,0.006483144187927554,0.000105494796625342,0.006377649391302212
834.1007425223996,0.31405026578461676,0.2908123144308887,0.023237951353728102
835.8095302498464,0.0060588801207367,0.00033806776976505123,0.005720812350971649
839.7585093096479,0.0036191925066920453,6.774304959226666e-05,0.0035514494570997785
871.0611510194045,0.0031559506726303657,0.0006376274555234814,0.0025183232171068844
876.2436251815202,0.004906484295713909,0.0031948760038803085,0.0017116082918336006
911.2911790767506,0.005647048379339012,2.087235389682788e-05,0.005626176025442184
983.9379911149485,0.0013573674688130454,4.590560790900849e-05,0.001311461860904037
995.1384644705115,0.0009738310005699522,1.1529910816713325e-07,0.000973715701461785
1011.0427423302957,0.0008708176279447803,0.00012969109521676866,0.0007411265327280117
1019.6133662560273,0.0003456805712620825,6.247179790922081e-05,0.0002832087733528617
1029.7454215382913,0.05785568819815175,0.034834433062595746,0.023021255135556
1034.3178297513768,0.005279246181175866,9.34063807701544e-05,0.005185839800405712
1075.6464307626647,0.26938743628785505,0.20983664270667574,0.05955079358117933
1086.3111892313011,0.014092648779670699,8.340740901623079e-05,0.014009241370654468
1090.2153342780252,0.10520909477383403,0.060606964725970144,0.04460213004786388
1142.4517570211408,0.03397067056564283,0.01974385790030505,0.01422681266533778
1148.11191452324,0.009005507755396838,0.005547840892131935,0.003457666863264904
1172.6476091871332,0.0027825858976713042,1.4738808219645659e-05,0.0027678470894516587
1172.6754019707575,0.0022202093445612414,1.359357662461619e-05,0.002206615767936625
1195.479220148702,0.18879376053507407,0.016491736486542414,0.17230202404853165
1207.3021176201457,0.03023302284665117,0.01876149310903662,0.01147152973761455
1208.552213264614,0.02300521962534613,0.01981791678746475,0.0031873028378813766
1209.9075591943802,0.13238845375335123,0.11104863843662878,0.021339815316722462
1250.446565196495,0.1884179455230017,1.48351049136091e-05,0.1884031104180881
1296.3789643613093,0.049951320057590856,0.023458738591622365,0.026492581465968494
1303.400709093432,0.19093742637252464,0.12611152313612206,0.06482590323640258
1324.1675581696288,0.13996170045492956,0.08902902002023912,0.05093268043469044
1335.5245511073088,0.08220482414370926,0.054742478600985835,0.027462345542723428
1339.678681947838,0.03781920176515152,0.013998127074824958,0.023821074690326568
1345.9395913413694,0.34927824990085204,0.2327253553042292,0.11655289459662287
1356.010382810391,0.23466189295486695,0.13505322513785029,0.09960866781701665
1468.2925070303143,0.0017808161099849744,0.00010036448695083174,0.0016804516230341426
1471.2631222087932,0.14881036042625362,0.07816003388472777,0.07065032654152584
1478.2984882873484,0.013708277704482186,0.007896449473881911,0.005811828230600276
1479.328299022244,0.026919475943968055,0.01940846150976995,0.007511014434198103
1494.7518948208863,0.04406166293374664,3.793913781312232e-05,0.044023723795933514
1495.080520499671,0.04177188806677116,2.9452079030090823e-05,0.041742435987741064
1505.326466765015,0.03544448762764694,0.008567505341752294,0.026876982285894645
1505.7258962140825,0.014811481228180615,0.0006009316756854309,0.014210549552495184
1561.4534930012342,0.023536674372996932,0.0004374570368455843,0.023099217336151348
1564.304303326798,0.07884211267264682,0.029523161518301796,0.04931895115434502
1646.548087619761,0.26438303971026544,0.0472889347428843,0.21709410496738113
1648.2114245781554,0.019015847307601676,1.0157047728339115e-05,0.019005690259873337
1676.5388499046646,2.4812433848408904,0.8556840939354279,1.6255592909054624
1680.2377010124674,1.4826343641180935,0.32247505598539083,1.1601593081327026
1766.544282623821,0.40434297435571603,0.004709359710469629,0.3996336146452464
1774.5372538237436,1.2595057584061806,0.8720276067775309,0.3874781516286497
3046.246232690158,0.7357419942139145,0.7029268547942648,0.03281513941964971
3046.5121151214275,0.8804142492214045,0.8444429868456216,0.03597126237578297
3109.3390001033017,0.219175627063614,9.51148248172062e-06,0.21916611558113228
3109.5740717849076,0.2349165512771275,3.645905179825742e-05,0.23488009222532924
3171.611936931855,0.6881921047501696,0.2059250570125667,0.4822670477376029
3171.6261314479766,0.7411559901219387,0.2560697198752642,0.48508627024667444
3215.394161996157,0.19399596529743107,4.118913518923921e-06,0.19399184638391215
3216.4705832676223,0.11829229195482382,0.05595179895577441,0.06234049299904941
3219.8886963573204,0.2949603829307477,0.020252638478948638,0.2747077444517991
3222.5134730803456,0.19188576846953354,0.037383162609172384,0.15450260586036116
3229.2470954654573,0.6996254442771016,0.5255825628510749,0.17404288142602672
3232.89685137025,0.408284341848591,0.3100713462031037,0.09821299564548731
3242.255278640813,0.7779561228692035,0.5448062918922515,0.23314983097695197
3243.4336691964645,0.6102896330545148,0.45920737655799443,0.15108225649652038
