frequency_cm1,total_intensity,isotropic_intensity,anisotropic_intensity
7.806812288978908,0.0022546507091827,6.457616407216616e-05,0.0021900745451105337
1.6561555752636885,0.0,0.0,0.0
1.7927608382704417e-05,0.0,0.0,0.0
1.7339075546989266e-05,0.0,0.0,0.0
1.9809305613189106e-05,0.0,0.0,0.0
0.42698356886680044,0.0,0.0,0.0
1.293372551776333,0.0,0.0,0.0
18.267744207375884,0.0019772322858080597,6.347961013696219e-07,0.00197659748970669
26.62775263128073,0.0012129298544719424,4.803339566503879e-06,0.0012081265149054385
41.5986124353331,0.00470578761896585,0.00042199462868181545,0.004283792990284035
55.25404958441089,0.004011891033410799,0.00010018346573716598,0.003911707567673633
65.81055374524392,0.006043638729784409,8.954475732549194e-06,0.00603468425405186
73.37886465811661,0.024426378261978837,0.00026299144022375975,0.024163386821755076
87.3571467971138,0.004286543746168523,0.00021721415397306517,0.004069329592195458
97.36601901766092,0.002388303337553709,2.876647270384722e-05,0.0023595368648498616
106.74872224716624,0.0017648906283328687,0.0007767173622339662,0.0009881732660989024
133.30322004171435,0.0012117962298944555,5.7558994289534096e-05,0.0011542372356049214
139.5536566333604,0.004891115007208185,0.0003860293915406554,0.00450508561566753
161.46017262206533,0.003439056979419645,3.568345272761025e-06,0.003435488634146884
210.15138211754694,0.0028151609880558027,0.0023741067077117425,0.0004410542803440601
217.52750670263188,0.002598252506660815,0.001920969536640864,0.0006772829700199512
242.35989796661215,0.0032311155567494535,0.0008076695000525079,0.0024234460566969454
244.79104717182392,0.002807780310846901,0.00023190249313078843,0.0025758778177161126
263.1000338367253,0.004709898861171409,0.00434622748967916,0.000363671371492249
277.96554124934767,0.0018577922087069884,0.0010903412020563804,0.0007674510066506078
283.9438929396068,0.0027976198565446858,0.002686820751562924,0.00011079910498176207
323.48536546766667,0.0026647555751679415,0.0006741238840119758,0.0019906316911559654
358.8448996007197,0.004124654273308602,0.0024900548675300224,0.0016345994057785796
387.598483628643,0.003981184865847378,0.002126492714317566,0.0018546921515298122
396.9724781310096,0.004951398840495542,0.0030024146394380304,0.0019489842010575113
420.74795379634656,0.0005919760060817591,0.00012562893278986458,0.0004663470732918945
458.83045576149203,0.010075299389626475,0.007057118256011057,0.0030181811336154173
497.13629792604206,0.0024625915652609406,0.0003437892966616882,0.0021188022685992526
503.23512847256876,0.017624970304561772,0.010404882274749323,0.007220088029812448
532.1379624682683,0.003867147220586963,0.00041200127016163536,0.0034551459504253276
575.19364142633,0.004634639764561282,0.001652592903135775,0.002982046861425507
636.4503113018377,0.015996132843297255,0.0003384457329025736,0.01565768711039468
723.3281728834838,0.001612668673220617,0.0012447282009412492,0.000367940472279368
728.2018402661173,0.0030675308008211916,0.0002574750043162953,0.0028100557965048964
732.4641634021212,0.005383451348825934,0.002906115360551601,0.002477335988274333
738.2835690849723,0.022374006126766918,0.018701343030059863,0.0036726630967070565
756.1711735691218,0.00394078742159382,0.0015595697824947498,0.0023812176390990707
773.177630622699,0.0025646057598475514,6.87332020944675e-05,0.002495872557753084
777.0705246872277,0.07945592695172222,0.07713382013149275,0.002322106820229471
793.5763310449763,0.009815416448302515,0.0074964561086011934,0.0023189603397013223
828.6070451521274,0.023506767944022754,0.00936395644593464,0.014142811498088114
872.1422367712719,0.023451384966185606,0.01954307675684758,0.003908308209338026
874.3206110745454,0.008205652526337946,0.002852393483641283,0.005353259042696663
881.4384877834082,0.02054784838354251,0.01056163519139223,0.009986213192150283
884.4136611044967,0.014137090799517874,0.009869144364173228,0.004267946435344645
905.7186659030016,0.046487496261158556,0.01862368624420129,0.027863810016957265
916.3409859734388,0.014659339209172072,0.0023966592992696444,0.012262679909902428
935.4445911115649,0.014014569878122659,0.004936133784258578,0.00907843609386408
950.718997529968,0.0012514508242187177,0.0002786230158080666,0.000972827808410651
975.4084836301358,0.0015129583484790178,0.0001163852377335981,0.0013965731107454197
984.9826171525731,0.00496921477656723,0.003829111319966519,0.0011401034566007112
1008.3973021017905,0.0025557851611186047,0.00011821609041478388,0.002437569070703821
1010.008498498682,0.008328552825701769,0.0003891582949531861,0.007939394530748583
1025.9833909020292,0.11759474058381751,0.11017194217331228,0.0074227984105052335
1028.0551350362637,0.006346603872562848,0.0054850585680814344,0.0008615453044814133
1029.1664007649674,0.04501970117942371,0.04059412224273555,0.004425578936688157
1053.445063875994,0.0016408553560666491,0.0004891716228359667,0.0011516837332306825
1059.4843454633435,0.017224382747474284,0.00014276467677774683,0.017081618070696535
1063.974686219511,0.10027582864396403,0.08978286825105941,0.010492960392904625
1073.8568833998954,0.012542408554972804,0.00041183596721645405,0.01213057258775635
1082.414703696615,0.011212385845922586,0.0057545063655508825,0.005457879480371703
1091.7451068574558,0.028376835014626692,0.008296107747204278,0.020080727267422414
1100.8369822608154,0.011652694032734764,0.0027019584456295185,0.008950735587105246
1107.9940208883102,0.026427352447526156,5.553498689297881e-07,0.026426797097657228
1113.5224787455013,0.01787030130446811,0.002671349258157411,0.015198952046310697
1120.1598837025554,0.022333858646309643,0.0006559704273537097,0.021677888218955933
1140.541824115247,0.010666587276235732,5.943025435625106e-06,0.010660644250800107
1144.1854706609208,0.01005931531506303,1.0415089608637592e-05,0.010048900225454393
1171.3821845753932,0.01620441391093046,0.0008897749209220444,0.015314638990008416
1176.9125750158828,0.013144403005467806,0.006516217342569711,0.006628185662898094
1186.5833460993153,0.019045862620185018,0.01617597292091811,0.0028698896992669096
1206.6085500537188,0.017778419081380673,0.0018158213896196658,0.015962597691761008
1216.174723150608,0.0037013403475359623,9.925843811173919e-05,0.003602081909424223
1241.7011909313842,0.07028812698301574,0.06456536407775824,0.005722762905257496
1250.9199044546153,0.008351957662856142,0.003929376169283091,0.0044225814935730514
1254.4988735900504,0.007256254907367671,0.0019169801466050495,0.005339274760762621
1263.4188700793488,0.02496467500923033,0.009434928277060899,0.015529746732169432
1273.599327712581,0.013842015268758416,0.00662600536351862,0.007216009905239796
1296.425068394255,0.004622564360499121,3.6742073489140895e-05,0.00458582228700998
1297.1974607707577,0.001046163247731085,0.0003480359958465539,0.0006981272518845309
1319.3516011311835,0.011548668109514477,0.0025703026304276697,0.008978365479086807
1323.551014051125,0.0018502266865149098,1.1212623774636383e-06,0.001849105424137446
1327.7917191004303,0.02354718041986094,0.0002399343239460656,0.023307246095914873
1332.459217966461,0.02480790245546852,0.00021762684424168492,0.024590275611226835
1335.3748301238809,0.039282113029664716,0.00021790910967097547,0.03906420391999374
1340.2210006788544,0.014420600677337197,0.0005623855222051021,0.013858215155132095
1343.990880298922,0.014008736553765212,0.0007753995392760509,0.013233337014489161
1352.3840433737105,0.009607726067235546,1.4742682445597575e-05,0.009592983384789948
1358.5491418592685,0.014503126211919392,0.003544070298610654,0.010959055913308738
1376.6673122419656,0.018732317612078782,0.004785729378683442,0.01394658823339534
1380.388817141151,0.003049227640860119,0.00015983413954950243,0.002889393501310617
1383.1411018324868,0.01031266302946361,0.005486938458185761,0.004825724571277849
1384.5256365175546,0.010641776428769052,0.0011307344869296821,0.00951104194183937
1401.2886871243195,0.0020966214037299305,1.341523785968446e-06,0.002095279879943962
1407.6293699842768,0.00764364990388289,0.0017992744781804317,0.005844375425702458
1411.0299941901799,0.0004871228553926935,3.728850960553552e-05,0.000449834345787158
1415.9051915937346,0.010042584999425501,0.0046783241811838685,0.005364260818241633
1420.7862701103918,0.003968450093202535,0.0010268694878102906,0.0029415806053922446
1477.1312690321176,0.02353068629769831,0.000776251749897326,0.022754434547800982
1480.2694455297933,0.03272632991338293,2.0873009138874e-05,0.032705456904244055
1482.446982170673,0.09077857236641182,0.000447496116701598,0.09033107624971022
1484.4290080305345,0.0031077557203970743,4.6776612104027824e-05,0.0030609791082930465
1486.2136214370205,0.018962050834743997,0.001495514446960963,0.017466536387783033
1489.4301189694202,0.022338484858350577,0.0003710590404437374,0.021967425817906838
1490.702733805264,0.01702420740844204,0.0004923405837304345,0.016531866824711607
1492.0781255069594,0.027223432188167213,1.7782947899914055e-05,0.027205649240267298
1493.2816666406313,0.03327091524530665,0.002413764351156598,0.03085715089415005
1493.592935460857,0.028285667767389715,0.00012281902599279272,0.02816284874139692
1496.8087296516378,0.009132425478230068,2.0427008344655604e-06,0.009130382777395602
1498.6914577984521,0.00450642293348271,0.0002786662702337829,0.004227756663248927
1500.1386485709575,0.0042086857096637394,0.00014441199963670834,0.004064273710027031
1501.8906496092354,0.005640094459968718,0.00024710521822921054,0.005392989241739507
1508.0901899347743,0.003886786055794381,0.0005656848011642414,0.00332110125463014
1545.4342516953698,0.002715882519532419,0.000547037841195837,0.002168844678336582
1661.5266463472708,0.03193419523138851,2.0813725540241075e-07,0.03193398709413311
1683.5353148056647,0.08669636596213476,0.005465887375597285,0.08123047858653748
3023.5093246503675,0.6282651698066993,0.4789912276568202,0.14927394214987916
3027.180645374199,0.37392727899568645,0.32565479138254183,0.048272487613144614
3028.061911225419,0.3769401164726676,0.3002140271312225,0.0767260893414451
3029.979677596959,0.4665642921399855,0.4287562096853562,0.03780808245462933
3031.0985431003637,0.501653327595897,0.32601366610956534,0.17563966148633162
3037.0544347627156,0.1357268362112163,0.10290720924100229,0.032819626970214025
3042.921842203494,0.3651263388475824,0.1680312311671655,0.1970951076804169
3044.24629982475,0.2755020195064035,0.18480414213880061,0.09069787736760289
3046.7504762188473,0.7410840586142203,0.603234302779204,0.13784975583501635
3049.0344793764766,0.5188974419089315,0.5041266985334876,0.014770743375443936
3049.568457089696,1.0459344945354514,0.9383365698166054,0.10759792471884608
3049.6361680752893,0.1568947333999733,0.07595629661423854,0.08093843678573477
3051.9019817127914,0.8416588544510932,0.7382680211878764,0.10339083326321691
3063.2767119500845,0.32927482465447444,0.0022903130328710665,0.32698451162160336
3066.6661055958302,0.2608935598799792,0.02214788674624087,0.23874567313373835
3069.3723298432083,0.2820415327075514,0.17102067522903958,0.11102085747851181
3073.4156157886828,0.9821285624017926,0.5344905338354818,0.4476380285663107
3078.0094946692184,0.2738794759943886,0.04275765673946783,0.23112181925492076
3082.304476935257,0.8577122610690888,0.562150972000558,0.2955612890685308
3088.2161115260183,1.0151225919626539,0.5120035736030789,0.5031190183595748
3093.259915770044,0.11617781827348059,0.005263733962054748,0.11091408431142584
3097.053493696583,0.2705608560130954,0.06305982342665555,0.20750103258643982
3098.6961960109043,0.1423772796380807,0.0124441626816153,0.1299331169564654
3100.558307992158,0.10744014505740185,0.06545406654162103,0.04198607851578082
3105.4332549154324,0.08649762473215279,0.009293827691769932,0.07720379704038285
3116.451610553276,0.05909476488376684,0.00022340164979845433,0.05887136323396838
3122.045169966,0.3466004513364574,0.07164181130616569,0.2749586400302917
3182.9235488201875,0.09779068874779896,0.07326676896766772,0.024523919780131243
3183.99310689128,0.3058281477218065,3.7553281844424695e-05,0.3057905944399621
3197.0707830390284,0.557224838823079,0.16941631020123996,0.38780852862183907
3206.628711218693,0.17055272056468984,5.3145044781436595e-05,0.1704995755199084
3218.0123629491554,1.3735475318361758,1.1466358615519443,0.22691167028423143
