frequency_cm1,total_intensity,isotropic_intensity,anisotropic_intensity
0.2849867830400914,0.0,0.0,0.0
3.880319223214062e-05,0.0,0.0,0.0
3.1734404763174934e-05,0.0,0.0,0.0
1.1887018812940738e-05,0.0,0.0,0.0
0.5302805401165848,0.0,0.0,0.0
2.86268031664552,0.0,0.0,0.0
19.359519139901472,1.522162256780422e-05,3.165542637862471e-08,1.5189967141425595e-05
30.599476012753275,7.86397010732202e-05,3.6849934411331665e-07,7.827120172910689e-05
40.32352295933298,0.00022408848274526477,7.998457744089453e-09,0.00022408048428752069
51.768657123770616,0.00047011780945273947,1.4160599657471073e-07,0.00046997620345616477
80.28327836683128,1.1426801593845893e-05,9.229623247221359e-08,1.133450536137368e-05
82.09460910422531,0.0002774652883013301,4.947882991633079e-07,0.00027697050000216676
93.85534171969097,8.55250633906627e-06,8.388228577916971e-07,7.713683481274573e-06
118.93020163003297,5.1653839083023605e-05,4.962148247310935e-07,5.115762425829251e-05
136.22501178720503,6.862965332519782e-05,8.293335809257153e-06,6.033631751594067e-05
152.2533597734297,6.753898908240498e-06,2.8005420090315853e-07,6.47384470733734e-06
152.87160126318963,0.0017953881801326976,0.0007472624384188283,0.0010481257417138694
169.0746315942787,1.036693786060346e-05,4.863723614166425e-06,5.503214246437036e-06
174.202811750948,1.1749856767696974e-05,1.3778875596545354e-06,1.0371969208042439e-05
176.3453350009754,0.02243585591553711,0.014115962330844209,0.0083198935846929
230.42701912802272,0.00027516669081048886,2.5097530293526853e-06,0.0002726569377811362
245.97714424161256,1.9952733100011436e-05,2.4769519124060973e-10,1.9952485404820195e-05
252.81578635628094,0.00035196710317539706,4.692770672211801e-06,0.00034727433250318526
330.22127706344935,0.0001267438934696899,1.1995137234317056e-05,0.00011474875623537285
341.3708969970993,0.00014365685212079505,2.8758626442780128e-05,0.00011489822567801493
425.59928939610313,0.00036950330272274995,0.0002821440054461797,8.735929727657026e-05
456.27017682025325,0.006067507323037053,0.0037310279378011445,0.002336479385235908
501.0067405488679,0.00015724722619720073,0.00011445008474929342,4.2797141447907305e-05
519.6840054796779,9.411399598770358e-05,1.0640615532402832e-07,9.400758983237955e-05
727.9902949724878,1.8102972820097448e-05,5.707636575112782e-07,1.753220916258617e-05
729.2920359196921,8.366357592557881e-05,6.50202064288834e-08,8.359855571914992e-05
734.1420850253969,2.3005581618647068e-05,4.798237980766883e-07,2.252575782057038e-05
746.0045587778104,8.312869720188437e-05,2.7851244505340334e-08,8.310084595737903e-05
767.2888876801522,0.00011777257902710402,2.2597103601004275e-05,9.517547542609976e-05
798.9372708352275,0.0011352177448450344,0.000425602570576568,0.0007096151742684664
827.4315386533905,0.004831570952229458,0.002967533162137134,0.0018640377900923238
856.4190248868708,0.0028349111837553515,0.0012582776417360646,0.001576633542019287
905.3455854497546,0.0004314079131536891,0.0003430933318069562,8.831458134673289e-05
908.2324756951336,0.03227155950988764,0.01968847830539394,0.0125830812044937
957.2068239111596,0.0032339560511626102,0.0018495088959606808,0.0013844471552019295
980.1087207019356,0.017773389582536873,0.010615672349399762,0.007157717233137113
1008.0401317117614,0.0006730647160252436,0.0003867449037655922,0.0002863198122596513
1013.0831364922,0.0005026211760109368,0.000115693342802745,0.0003869278332081918
1028.2748026629783,0.00024786358525743916,5.0757805853139124e-05,0.00019710577940430004
1041.4401331020283,0.00454154682465901,0.0016071817531747553,0.002934365071484255
1054.975024288376,0.0008040914552396184,0.0005423920403187795,0.0002616994149208389
1061.0604580534641,0.008806853832206857,0.0043196449389678124,0.004487208893239045
1079.6076892666667,0.0019184515816121934,3.3808152908047174e-07,0.0019181135000831129
1088.4625094855132,0.053960948002026776,0.0002039655147632833,0.053756982487263495
1089.8256759700982,0.05030325904785528,0.00037009769248772944,0.04993316135536755
1091.7340093928206,0.0031394462457621786,0.0008370326934649885,0.00230241355229719
1095.2461108123293,0.021340168957032113,0.006245050497363286,0.015095118459668825
1110.3859225934377,0.04638825660859411,0.02356922566364879,0.02281903094494532
1143.0399688591335,0.027426285207296307,0.01424901169649627,0.013177273510800037
1162.4397992550842,0.17560242201855503,0.10416447322721667,0.07143794879133837
1205.0996660504393,0.014895657609091506,0.0019806559078888934,0.012915001701202612
1217.1793768042871,0.004999957206892982,0.0038559839692758786,0.0011439732376171032
1229.1781931780388,0.0008691251805853596,0.00019102922237220228,0.0006780959582131573
1245.3718026695751,0.0017050166873130404,0.0013621546247459928,0.00034286206256704766
1258.641651353115,0.0005063515088842367,0.00018771786733421598,0.0003186336415500207
1273.9307224131783,0.0011563447068799427,0.0009333877377018459,0.0002229569691780967
1287.3759267993642,0.00035194288578150256,0.00012395714425301595,0.0002279857415284866
1300.3820275245705,0.002336212696132099,0.0009497616588815291,0.00138645103725057
1313.3059880177416,0.0009710426336555497,9.646196296619688e-05,0.0008745806706893528
1322.786615153751,0.00876686544100503,2.7346788483230864e-05,0.008739518652521799
1324.6471398307983,0.14801982716780063,6.058664534700048e-05,0.14795924052245363
1329.2750309754267,0.0009593409647695488,9.119139275610294e-05,0.0008681495720134459
1330.5071937967296,0.000465406464215169,4.878957552680578e-05,0.0004166168886883632
1334.3752688485847,0.004373962144846974,1.3325224289876723e-05,0.004360636920557098
1337.1913322276978,8.054999255987154e-06,2.2096476208670852e-07,7.834034493900446e-06
1338.6141335837026,0.0017297798957917033,2.3105194626713658e-06,0.0017274693763290319
1352.9610868460716,0.0005473872733766351,0.0003442808415775247,0.0002031064317991104
1379.6544402672778,0.0012623370911710129,4.2336212286601434e-05,0.0012200008788844114
1401.04215834373,0.00023287280946408172,1.1341526707859562e-05,0.00022153128275622215
1412.2896806312865,0.000942655198858684,0.0006749416446599985,0.0002677135541986854
1415.373874250252,0.004519163416234097,0.00011329125701020122,0.004405872159223896
1420.6046733025173,0.008918206336742542,8.154335328917315e-06,0.008910052001413624
1420.9895338222266,0.000556798019610761,3.383301237026097e-06,0.0005534147183737349
1437.682735563997,0.002315936053219935,0.0001932432872478394,0.002122692765972096
1480.3648442985816,0.002935322060566054,7.238822395430004e-06,0.002928083238170624
1480.57201326794,0.0006124707492653309,6.49475760214199e-05,0.000547523173243911
1482.75038574917,0.0010303286218214525,0.00026587116203470563,0.0007644574597867469
1483.236144395514,0.01871934425244036,0.0020900438197778066,0.01662930043266255
1485.155101844606,0.21350412844607236,0.010936111028111688,0.20256801741796068
1486.9199306396122,5.685545115685815e-05,1.131202068768005e-05,4.5543430469178106e-05
1490.6831524017393,0.02263196520574077,0.000369880956665365,0.022262084249075404
1493.755133848214,0.027058442343587508,4.265680194615806e-08,0.027058399686785563
1495.1486175250634,0.00016076295380862716,2.8438174587890917e-07,0.00016047857206274825
1499.558917139243,0.005617232111332817,2.402018647288256e-06,0.005614830092685529
1503.5231261937615,0.0009927812927382656,3.836750183140088e-05,0.0009544137909068646
1506.1467593523605,0.001910664235717233,2.577678970046978e-05,0.001884887446016763
1512.6322990411757,0.015788363936017166,9.979051836539097e-05,0.015688573417651775
1657.8047754358563,0.013928738028787344,1.0320700278758883e-05,0.013918417328508586
2979.8229899574594,0.47873016905291993,0.3365413150981224,0.14218885395479752
3021.4283176731847,0.01251159179136931,0.010118601743143938,0.0023929900482253714
3021.8992296079105,0.05062741023133486,0.046141959708798884,0.004485450522535973
3023.2787686363135,0.1236020574355559,0.10732475250198534,0.016277304933570564
3023.662505908079,0.141936882733627,0.13836560727925823,0.003571275454368767
3025.216763332016,3.8077629314221997,3.702443359716933,0.10531957170526665
3026.1395249281936,0.16769193126800613,0.13156527083201217,0.036126660435993975
3029.5450127283802,0.31203299597740364,0.25988262377799975,0.05215037219940386
3034.114243129288,0.055582243346759694,0.0200785639849942,0.03550367936176549
3038.2990362033543,0.1854089850236471,0.13430699366481177,0.05110199135883532
3041.0894027195886,0.38321912196506175,0.3464909734847852,0.03672814848027654
3043.145806800936,1.2877002891788942,1.0571883458593458e-06,1.2876992319905485
3044.839566544419,0.0168996079536085,0.002345050448364543,0.014554557505243959
3048.262537654252,0.2916825392455664,0.007698989394998516,0.2839835498505679
3049.7941692826357,0.9153004960965672,0.9080423154148595,0.007258180681707728
3053.374898876917,0.01292811162713025,0.010375864918887985,0.0025522467082422654
3060.3044345790972,0.13596719238433588,0.004998056878406694,0.1309691355059292
3067.3077306961322,0.08149321898173403,0.009736122617381823,0.07175709636435221
3069.611474342598,0.20855054218637387,0.03612580542617568,0.17242473676019818
3076.4710783329456,0.05707982594215518,0.014320149587923811,0.04275967635423137
3082.9963608684375,0.03789478177207341,0.01247877357752684,0.02541600819454657
3088.367957316127,0.022389644013392634,0.008241804028426463,0.01414783998496617
3094.848883174968,0.08936724698577557,0.07674088949233665,0.01262635749343892
3112.7376465466596,0.1285576184007804,2.4936640838482376e-06,0.12855512473669656
3120.9271375132084,0.4099753759023984,0.06285768728932163,0.3471176886130768
3538.388038763481,0.7043144287170386,0.6020807095826898,0.10223371913434884
3612.020660944121,0.3335698830615103,0.028330402307144675,0.30523948075436563
