frequency_cm1,total_intensity,isotropic_intensity,anisotropic_intensity
1.8725425559130249,0.0,0.0,0.0
7.3250292471272236e-06,0.0,0.0,0.0
9.023494938226367e-06,0.0,0.0,0.0
2.263671938452509e-05,0.0,0.0,0.0
0.74561326730832,0.0,0.0,0.0
0.8646904171065016,0.0,0.0,0.0
9.729406905091924,0.0005377133745411109,6.82512702466399e-07,0.0005370308618386445
13.525433166558578,0.0012313838167638642,3.5404626429156316e-06,0.0012278433541209487
18.641730104736872,0.0008554733181444725,4.262176867061356e-07,0.0008550471004577664
23.14070030547976,0.0007446158510712337,5.40101092950411e-07,0.0007440757499782832
29.021393152109848,0.0005359298844347008,4.79216389254494e-05,0.00048800824550925145
38.578518094248714,0.0003040452292860165,1.7659256207596054e-05,0.00028638597307842047
50.58128804800993,0.0001355878371051988,7.484500083288668e-08,0.0001355129921043659
58.13791442074619,0.00030438437869132834,4.810306114176541e-05,0.00025628131754956295
67.34608393052713,0.00015133340374481102,2.962350847547217e-05,0.00012170989526933886
82.06054551424224,9.778414187030932e-05,2.6682553915570292e-05,7.110158795473902e-05
90.32705393915343,0.0002798958728578942,8.140734100183226e-05,0.00019848853185606196
98.48722584938912,6.081879712451967e-05,2.7356650295297316e-07,6.0545230621566695e-05
105.26347648696607,0.0006567385143572594,0.0005655960093422833,9.11425050149761e-05
117.52802758296852,0.0003031215952353554,0.0002352396059605212,6.788198927483422e-05
121.80683073190797,0.006300697016983667,0.003659639675976759,0.002641057341006908
129.70682285843256,0.005485756588934483,0.004445986948112436,0.0010397696408220476
131.91351779818825,0.00018847624085745613,0.00017001445858807942,1.8461782269376722e-05
148.16486444374237,0.0010030190172778486,0.0006993842241464959,0.00030363479313135264
157.99096031994856,7.830590307875456e-05,5.462984187663476e-05,2.3676061202119803e-05
165.16444602700716,0.0016904067493523135,0.0011495361640009333,0.00054087058535138
172.04285874286887,3.203029947766606e-05,4.565346066208866e-06,2.746495341145719e-05
175.32201192712708,5.950545529852139e-06,1.646959703804523e-06,4.303585826047617e-06
186.6020225450727,0.002506237443776885,0.0010359965310953773,0.0014702409126815079
232.6448128101571,0.0016707368927435294,0.000179707491100405,0.0014910294016431244
244.91380119390493,0.00108104685608506,0.0002070999131417155,0.0008739469429433446
246.33793622696322,0.00013544033955024468,3.206192880021881e-05,0.00010337841075002587
253.0845766473667,0.0011680717684491916,7.972885752599601e-07,0.0011672744798739317
268.78365629092605,0.002049069659400738,1.159026566173737e-05,0.0020374793937390006
300.31902422557715,0.0006444035014024432,0.00038029811970820455,0.00026410538169423865
325.449915873169,0.004709297977697302,0.003853843076147742,0.0008554549015495599
333.46555253311675,0.0005288239220791675,0.00032984793750033016,0.00019897598457883727
379.93770866089125,0.00203325454897194,0.0014400758688224195,0.0005931786801495207
387.8958596358063,0.0015865397970073777,0.0006702662495906783,0.0009162735474166994
405.7186214563008,0.0030070007123756725,0.0005188949682082501,0.002488105744167422
451.0620437424817,0.003734568325120416,0.0011584067381540213,0.0025761615869663947
459.96365438676276,0.00022235414260043284,7.913485940089403e-07,0.0002215627940064239
489.71092948430083,0.016577792647498146,0.008723632816534595,0.00785415983096355
504.0600839809189,0.0006826812677895993,2.206222953574832e-05,0.0006606190382538509
512.4396098516524,5.636113861919121e-05,1.3386343418949584e-06,5.5022504277296254e-05
540.1950914539267,0.0008879095966862877,3.217546987952393e-05,0.0008557341268067638
727.6924478603836,6.455959218073558e-05,3.8775100118741376e-05,2.5784492061994204e-05
727.8652010552819,0.00018257906790095663,3.3347606480914417e-06,0.0001792443072528652
728.9288281460313,6.85604207719235e-05,1.4495187747199193e-06,6.711090199720357e-05
732.1533588229335,0.00021722516888912324,1.4378183568349634e-07,0.00021708138705343975
738.9142720502532,0.00026187419986352476,1.3363573014437348e-05,0.0002485106268490874
747.7670041653597,0.00046171701089139255,1.1365568367187703e-05,0.0004503514425242049
759.7738437276371,0.00033543194423753703,2.040585414730181e-06,0.00033339135882280686
781.3066336793341,0.000523774440199607,3.235353863434941e-05,0.0004914209015652576
811.0422045135118,0.001158303514801237,7.767218483533069e-05,0.0010806313299659065
840.016486548669,0.0030509522023075613,3.9807841469964644e-05,0.0030111443608375967
855.6334065499378,0.0015170718444970383,0.00014868446197411277,0.0013683873825229254
880.2854786866171,0.02299461921740712,0.011307135202365958,0.011687484015041162
896.0716101646783,0.01401845266007205,0.010094697049744092,0.003923755610327958
908.281936241696,0.033957406794141706,0.02083110358070066,0.013126303213441047
933.8204529844365,0.013627500662426312,0.00974243679804288,0.0038850638643834314
959.9202098958328,0.022684124896736296,0.018040485081284217,0.004643639815452078
979.3913807202766,0.0012822146229556543,7.999063608032063e-05,0.0012022239868753337
1004.605708283226,0.0012100231749059746,0.0004334864532787887,0.0007765367216271859
1010.0420021873911,0.007389418302363835,0.004563402717728614,0.0028260155846352216
1015.2066644745142,0.0033477461906044684,0.0010943465674760496,0.0022533996231284188
1028.7891778958026,0.0029425061335449226,0.0017366178726123363,0.0012058882609325863
1037.1209868662238,0.0018381632376022168,0.00012751263732626276,0.0017106506002759541
1042.9529207794808,0.012080142643690152,0.004783429579789216,0.0072967130639009364
1048.0960735186834,0.00023998470778303146,0.0001595821053498623,8.040260243316917e-05
1061.5590541737085,0.01900499059892037,0.010330513252138384,0.008674477346781987
1063.3384630233427,0.000722239183897635,5.015075325697178e-05,0.0006720884306406633
1068.4176754309221,0.005814650707427456,0.00017629520899385207,0.0056383554984336046
1070.2774516539907,0.004471113781569984,6.500054743362014e-05,0.004406113234136364
1081.9615038780744,0.010601344266928235,0.0006591995152653833,0.009942144751662852
1088.5449204527883,0.12251677920915632,8.800129177735849e-06,0.12250797907997858
1089.6021635219388,0.0006610395308818823,2.757573152845445e-06,0.0006582819577290368
1091.705426741298,0.00010717329876671278,2.22065577594052e-06,0.00010495264299077226
1092.5191953999856,0.004255972909627835,6.750361015565505e-05,0.00418846929947218
1096.6557832859946,0.015705806185304042,0.0029638635573099844,0.012741942627994057
1102.020969572511,0.028182754313176114,0.018536357627630683,0.009646396685545433
1107.2154667077398,0.036794493234775065,0.00017274762770172353,0.03662174560707334
1120.861838085072,0.01693843514956973,0.005409147782828075,0.011529287366741654
1131.477270821667,0.021614100605102556,0.005382207791832892,0.016231892813269665
1149.1493215134747,0.018296042299465173,0.013021389074505403,0.005274653224959772
1156.933862496725,0.21577620136803966,0.11726580880573832,0.09851039256230132
1190.8327024953026,0.05925449443945523,0.02239934760445392,0.0368551468350013
1202.328884054362,0.010287254825772226,0.003616837492361104,0.006670417333411121
1205.1516853239268,0.010896778969099869,0.0008577176547822443,0.010039061314317624
1219.9022953164551,0.0012297453111765747,0.00042968670930928837,0.0008000586018672863
1223.4041887733376,0.0016878731834796136,0.0003219290215893359,0.0013659441618902777
1241.7185484992992,0.0006678968130044589,0.0002136387383798802,0.0004542580746245786
1243.809838071078,0.0018835615246121716,9.841162560799072e-05,0.001785149899004181
1259.5186155233034,0.002259752500603159,0.0009350132607891784,0.0013247392398139804
1264.8844366317276,0.001948284915219469,0.0008170055485974907,0.0011312793666219782
1275.675295696779,0.0035448983721070694,0.0016271964660213986,0.0019177019060856706
1285.7476551067562,0.00408498708987527,0.0021549403755672966,0.0019300467143079738
1292.8877941579394,0.0015156900527958305,0.0008585177564127063,0.0006571722963831242
1298.2753748715638,0.0061431252629688664,0.0026111457912865225,0.0035319794716823436
1308.1886517850155,0.004315153536063107,0.00031942054651180944,0.003995732989551297
1312.2217341074443,0.004907549392362912,0.00019882111337962558,0.004708728278983287
1315.8239442182444,0.0025613653867106014,0.00010093918978456761,0.0024604261969260336
1320.3893648433339,0.0011218350284354747,1.6544292011949312e-08,0.0011218184841434629
1324.1939706459525,0.1850447023273535,8.164353145544369e-05,0.18496305879589806
1327.5167789763311,0.007320510915440402,0.00010910728395811884,0.007211403631482283
1328.7787905914204,0.001509002096958334,0.0002106501612215162,0.0012983519357368178
1333.0032791344306,0.015529267854186945,7.67507004316587e-05,0.015452517153755285
1333.998446881604,0.012190283578937498,0.0002017121212206805,0.011988571457716818
1336.9186127867856,0.006249082809028222,6.693983490740756e-06,0.006242388825537481
1337.7516716717173,0.0011193064579278129,0.00011564246990686758,0.0010036639880209453
1338.650704136026,0.0024718576013635454,6.229054220706412e-06,0.002465628547142839
1340.621914164297,0.03507638103538768,7.55564355563255e-05,0.03500082459983136
1345.6975558789775,0.01087153005236665,0.0004194138895659063,0.010452116162800744
1363.2388145403936,0.0013919299447083605,2.742917838973287e-07,0.001391655652924463
1383.3085528573113,0.001630277175721969,0.0002953457428559724,0.0013349314328659967
1398.2465798320845,0.004411241051673154,0.0003458893407071161,0.004065351710966038
1399.3235873756857,0.0006173854496306322,0.0002055833431023276,0.0004118021065283047
1410.196897362155,0.0019064856619510605,3.5368328226699323e-06,0.0019029488291283905
1412.9328107226993,0.0025237487977384774,0.0009923334404198594,0.001531415357318618
1417.3748229059197,0.000241880253978792,3.338139347450761e-05,0.00020849886050428439
1419.6445279333343,0.017376996574433753,3.835293808961113e-05,0.01733864363634414
1420.968415828794,0.00015942785636633713,2.3232060940429756e-05,0.00013619579542590736
1421.31075373863,0.00027726255970776957,5.091633403959009e-05,0.0002263462256681795
1427.0620174986989,0.0056609786781899535,0.0016185526039889863,0.004042426074200967
1440.8995549121069,0.007179650104441842,8.350896183603842e-05,0.007096141142605804
1470.0169256891538,0.0076023137096027545,0.0001727988079713714,0.007429514901631383
1479.1446625103677,0.02023062162700274,0.004419187479945276,0.015811434147057463
1479.9200051949085,0.003974231364530814,0.00039000671496770915,0.003584224649563105
1480.2417919316792,0.004771831280952694,0.0008184581622730423,0.003953373118679652
1481.117422553161,0.009062702852557789,0.00014237826411698165,0.008920324588440807
1481.6848339417909,0.01365190474768539,3.624135902340202e-06,0.01364828061178305
1481.9186407546983,0.03126014417554706,0.0003788272680778598,0.030881316907469203
1483.0220867038863,0.0017102100681429383,2.388130963485165e-06,0.0017078219371794532
1483.6658254539318,0.0030922585900803835,0.0005179840308981688,0.0025742745591822145
1484.6561288468035,0.04703537659117342,0.0036066598715142582,0.043428716719659165
1485.0974940143994,0.277431399933854,0.020713793837288524,0.25671760609656546
1486.530022446943,0.016068587046212824,0.0002678091040213918,0.01580077794219143
1489.3139744077828,0.013022980670939084,0.00045472552236821575,0.012568255148570868
1492.5536656849613,0.001922489320685212,2.1443167763429492e-07,0.0019222748890075777
1493.756140133645,0.02733238621788466,9.934268893485948e-07,0.02733139279099531
1494.6036907822297,0.014999615674537838,0.00015093819333730145,0.014848677481200537
1496.2544481665632,0.005190219538767374,3.392835486944854e-11,0.005190219504839019
1497.943925656824,0.027185889866474293,0.00014538142310080107,0.027040508443373492
1499.637853768011,0.0012303734969269884,5.936970532550185e-06,0.0012244365263944382
1502.6415274611886,0.005779960396994373,1.472557974729631e-05,0.005765234817247077
1503.4421970062851,0.01501281176722564,4.752364027720108e-05,0.014965288126948438
1505.0893930479745,0.002366607714511587,7.341792128896541e-05,0.0022931897932226214
1506.4214369793763,0.0006350137658156523,8.185934114272304e-06,0.00062682783170138
1508.6538028785185,0.024048772254647858,0.0005670452340887624,0.023481727020559097
2916.528334110109,0.2322599606542754,0.14830372733100297,0.08395623332327244
2944.9584087285193,0.12216858396666058,0.04863191822652831,0.07353666574013226
2956.3402026358517,1.126395237136073,0.8809111802698575,0.24548405686621555
3021.1536328428137,0.014077466844425927,0.012326331277639558,0.0017511355667863685
3021.310701253965,3.5490233593324765e-05,6.228989518048659e-08,3.542794369814428e-05
3022.231839467099,0.0817968442622035,0.07576363299752159,0.0060332112646819085
3022.6660653514086,0.023815882695848077,0.023373615334163263,0.00044226736168481197
3023.6945387210703,0.01857091727835123,0.006137860911065699,0.01243305636728553
3024.4953294041647,0.5856595236854036,0.5744667933613083,0.011192730324095328
3025.1346127025477,3.6654421327095283,3.60846232211723,0.05697981059229839
3026.253555496315,1.0669687560296979,1.0219688134204417,0.04499994260925616
3028.1594181459377,0.1843682729628248,0.15027250873519504,0.03409576422762975
3031.0304819976714,1.102997409777522,1.0021253738296152,0.10087203594790681
3031.3672320076935,0.14534932815909693,0.12316840909856291,0.02218091906053401
3034.608109555929,0.16383930954150944,0.1389007123765722,0.024938597164937234
3037.594820681393,0.025031365018972566,0.014164233082569427,0.010867131936403138
3039.7937762046354,0.1846679929608173,0.12942500319595823,0.055242989764859064
3041.131105539125,0.3503236399414772,0.31616857264336506,0.03415506729811213
3042.739509212691,1.663012931677158,0.00014254810132197993,1.662870383575836
3043.456194324055,0.007334669202097134,7.211502713383151e-06,0.007327457699383751
3045.046163237469,0.3649573589601229,0.001277413791403226,0.36367994516871965
3047.6945124745907,0.007717881612584705,0.002044278150779069,0.005673603461805636
3049.7748216542977,0.9138298249526365,0.9065072417128475,0.007322583239789034
3051.5616911402963,0.1749213262165692,0.006939790042577242,0.16798153617399195
3055.9159759980325,0.022173577070825366,0.0001123251422197672,0.0220612519286056
3057.6479563353782,0.26307607481672834,0.21382410972658736,0.049251965090141014
3060.6352928631636,0.2752113366833574,0.09688511345789572,0.1783262232254617
3064.7495152186884,0.07042044739692713,0.05937523068553163,0.011045216711395491
3068.280820445701,0.44727630031261423,0.18540510998755874,0.26187119032505546
3070.3833658094595,0.11498847284248881,0.030091997718107555,0.08489647512438125
3072.638036424368,0.3340223293777853,0.18042922910782677,0.1535931002699585
3075.5560838856804,0.023543004661653204,1.6448572690744432e-06,0.02354135980438413
3080.721641649291,0.04007378442640968,0.00042734197204604487,0.039646442454363634
3085.328495719599,0.011490511082434686,0.0007844960661062121,0.010706015016328474
3089.0023207259924,0.011972047277532757,0.00018099610596057742,0.011791051171572179
3092.0524243487253,0.01053282693668037,0.003423078928747099,0.007109748007933271
3093.7668331535197,0.5761433052870341,0.40578217693833674,0.17036112834869732
3102.208271582316,0.6855746298433089,0.5123411528959239,0.17323347694738497
3112.73531159655,0.12858307193120105,1.5194598940106646e-07,0.12858291998521165
3113.3510457281386,0.11801052062360282,0.03757277911367217,0.08043774150993065
3120.94669074728,0.4100544012361896,0.06289755092644406,0.3471568503097455
3135.782144174567,0.29206962059115904,0.0003066214540697454,0.2917629991370893
3149.2280771709657,0.2588461520481943,0.016575131497740155,0.2422710205504541
