frequency_cm1,total_intensity,isotropic_intensity,anisotropic_intensity
0.9355083870823492,0.0,0.0,0.0
2.318089689262856e-05,0.0,0.0,0.0
1.994739597891405e-05,0.0,0.0,0.0
2.5690650003385314e-05,0.0,0.0,0.0
1.205739368064757,0.0,0.0,0.0
1.628754247092807,0.0,0.0,0.0
9.170154744036267,0.0028270725250898825,3.1281713050133327e-07,0.002826759707959381
10.527542765626425,0.0028922552684892745,5.1459644966705234e-08,0.002892203808844308
25.87260451365389,0.003000935514043821,0.000326609611283464,0.0026743259027603573
43.05633778606732,0.0001381579455323728,7.565064219886639e-05,6.250730333350641e-05
48.17586469396943,0.0005088328030561976,5.327110241796232e-06,0.0005035056928144013
49.2035342946678,0.0004333211996478514,1.4937388707117327e-08,0.00043330626225914425
72.06074644993605,0.0001265223959088489,9.252431528581816e-08,0.0001264298715935631
72.80804628389212,0.00011715952815587272,1.7735759362095848e-07,0.00011698217056225177
79.22786913963334,3.60187659009349e-05,3.2203850107477356e-05,3.814915793457545e-06
117.81322773904357,0.0011391069792926157,0.00037018747432559655,0.0007689195049670192
121.32756524359773,0.00033366526913427587,1.856477801439666e-05,0.0003151004911198792
121.97410684020524,0.00030101783014142765,8.016786540745714e-07,0.00030021615148735306
148.3975873470767,0.002683107797849637,1.5127740207158866e-06,0.002681595023828921
148.98903338643336,0.0024010175708892596,3.215815298508266e-10,0.00240101724930773
175.79284487616147,0.0007110684744575197,0.0006430335697765401,6.80349046809797e-05
205.83854483433947,0.0011002856585331955,5.529710292775958e-06,0.0010947559482404196
208.59274795225954,0.0009767048713087351,3.638518312844548e-07,0.0009763410194774506
224.38375331963942,0.008821289117298948,0.008636082850003137,0.00018520626729581112
249.70727471066374,0.00042069536783937285,9.999666931606313e-05,0.00032069869852330974
250.01346566748288,0.0003245884885118923,2.668014782093614e-06,0.00032192047372979867
252.20321406629625,0.004208525646437555,0.00420262646633549,5.899180102064579e-06
268.7515708218324,0.008424150379112103,0.007752451097941354,0.0006716992811707479
294.5089000742824,0.005195644073812499,0.0001372356467238555,0.0050584084270886434
297.9007652101745,0.005205065559641965,1.1163825521312805e-05,0.005193901734120652
396.14306742749386,0.0024658300620949702,2.057113582033961e-06,0.002463772948512936
397.12651062548645,0.0021853540257937214,3.190906420182803e-06,0.0021821631193735384
410.2594653143597,0.004693252422353628,0.004619128530566289,7.412389178733916e-05
472.61800333154844,0.002778409654269015,1.8431693868373868e-06,0.0027765664848821777
473.70805587165734,0.0024934122372869114,6.011262997173307e-08,0.0024933521246569396
524.7947208165565,0.0026961207125992476,1.495133446439888e-08,0.0026961057612647833
527.4205041546971,0.0026272474360925033,1.2925593058593741e-05,0.00261432184303391
560.8527270022967,0.012215463382636179,0.007598378474962158,0.00461708490767402
745.1859095407985,0.00027208838306197654,4.2843909047983586e-05,0.00022924447401399296
745.4498413902568,0.0009747752071594411,2.2460595125174425e-07,0.0009745506012081893
745.6141799381943,0.0009612757384413312,2.3291790187276864e-06,0.0009589465594226035
779.7352647780938,0.029332290243480608,0.02638113282417211,0.0029511574193084975
805.7701247516582,0.0007423946037708027,8.592764017521854e-07,0.0007415353273690506
805.9025638951864,0.000737217875479429,1.670477513684368e-07,0.0007370508277280606
816.2427008231198,0.0077798293771744655,0.007773047845870864,6.7815313036022065e-06
891.4588374233805,0.004501941353435788,5.141843188899253e-07,0.004501427169116898
891.6295619370029,0.0044669863875447515,1.115259728459227e-05,0.00445583379026016
921.5670105629522,0.07966044944082722,0.07850952719297732,0.0011509222478498962
924.0337619347248,0.016841841136319206,2.004747570150444e-06,0.016839836388749054
924.1963608262422,0.017071281015620866,5.187984135814331e-05,0.017019401174262722
953.9607670670667,0.0010697172751020154,0.0008508724877136388,0.00021884478738837658
955.0692236222159,0.000786727094072688,4.245243196789415e-07,0.000786302569753009
955.1943878074461,0.0008915917672786293,9.574958264247513e-08,0.0008914960176959868
1029.181460002441,0.011399408505292351,1.0817272507138327e-08,0.011399397688019845
1029.5157430454956,0.010981964962571441,1.0222348927165078e-05,0.010971742613644276
1038.5320278016281,0.0038501561703046497,0.0036264049325119485,0.0002237512377927014
1074.7293441868323,0.022341182969143038,5.222650021760381e-07,0.022340660704140862
1075.0434190113663,0.02272367066944672,5.232948720220898e-08,0.02272361833995952
1083.944153645811,0.013160090379204823,0.009593780564900923,0.0035663098143038996
1086.356069025398,0.04738565876996094,3.880248975037738e-05,0.04734685628021056
1086.5733093034335,0.04852170439666175,8.839769295563261e-06,0.04851286462736619
1116.4844155607707,0.018481983369079552,0.009437553332143423,0.009044430036936127
1145.0680984134326,0.1004882449751415,0.09771970389640645,0.0027685410787350435
1145.149222164121,0.015012193653508666,0.00022070227280223632,0.014791491380706429
1145.240244719506,0.01815430753327263,0.004246325585126724,0.013907981948145905
1197.1861708788283,0.0007274054183682626,1.7446602513021148e-06,0.0007256607581169605
1197.2047496580929,0.0012251635447380193,1.3176255534957048e-05,0.0012119872892030622
1197.3714415850864,0.001698632409531405,3.916120533314827e-05,0.0016594712041982566
1262.6649366061488,0.007532791926086885,0.0025465828658774894,0.004986209060209396
1268.365819561588,0.00151019148342771,4.920555539563597e-07,0.0015096994278737536
1268.4493531897526,0.0013854361326783042,7.815613379346552e-07,0.0013846545713403695
1285.8549501670395,0.00977713939439638,0.007354326384491293,0.0024228130099050883
1298.2085354431354,0.00018661582522850814,2.421004842602207e-06,0.00018419482038590593
1298.3852285162304,0.0002541348939797727,9.033254645554485e-06,0.0002451016393342182
1305.7952264610356,0.00953697167224047,0.009288918138758685,0.0002480535334817842
1330.0156099182968,0.011081043654180302,2.409055857281848e-06,0.01107863459832302
1330.1185053962893,0.010774631205960396,8.182688387172442e-06,0.010766448517573224
1333.1482397059033,0.07812035487321627,5.316665718233554e-06,0.07811503820749803
1334.3185054655,0.026760086413305594,0.00013647565256289367,0.0266236107607427
1334.804336516639,0.024675250281398785,0.00017095527201637178,0.024504295009382414
1335.7505336685822,0.0267511434188365,0.004618182683352779,0.02213296073548372
1388.5489707026572,0.006062436047113356,4.646663944865945e-08,0.006062389580473907
1388.6170095206123,0.0057125673200272,1.0379313748087946e-06,0.005711529388652391
1389.8260269773878,0.00012769945483343483,0.00011037717001727888,1.7322284816155945e-05
1414.2617103915832,0.00017243657067752597,1.2919196711673368e-05,0.0001595173739658526
1414.2862442616274,0.00019261928687746443,1.315129302176313e-05,0.0001794679938557013
1414.3558785094226,0.001692575605876498,0.0006575997687763601,0.001034975837100138
1429.9673924350734,0.0038272628773849994,1.028534977159311e-06,0.00382623434240784
1430.100864021631,0.0034812095767564823,6.507586252591525e-06,0.003474701990503891
1432.17641976075,0.003669856001887184,0.00357030547731746,9.955052456972393e-05
1485.8184448768302,0.06534193920948461,1.4638632524484385e-05,0.06532730057696012
1485.8441737861,0.06027985474987782,0.00047504612302223933,0.05980480862685558
1485.957157496935,0.02216770790888403,0.0025246640348428203,0.01964304387404121
1494.5919411640073,0.006564322684981236,2.0858434622967762e-05,0.006543464250358268
1494.6365490048115,0.019121819851388114,1.8229840896279478e-07,0.019121637552979152
1494.6502543383351,0.03728961850902994,2.52684930230296e-05,0.03726435001600691
1494.9295607687504,0.016770482861315113,0.0001427113247231329,0.01662777153659198
1495.3730156787165,0.01176850946677022,0.0003802532928940608,0.01138825617387616
1495.90887035938,0.005017457179308717,0.001729741130600152,0.0032877160487085645
1502.209860967384,0.03454640865230297,8.856632759079253e-06,0.03453755201954389
1502.5127643846554,0.03586841276984225,3.078058988114486e-05,0.0358376321799611
1502.932077850144,0.005375189253729924,0.0005627822128579114,0.004812407040872013
1513.0016441041178,0.011336478776424186,4.924586684943963e-06,0.011331554189739242
1513.6172622710803,0.009478205442717371,2.1533458103754938e-05,0.009456671984613616
1514.3607813439273,0.0026466297449560016,0.00013585026326238712,0.0025107794816936146
3038.029208617064,0.681963098691992,0.6062377108078234,0.07572538788416856
3038.3247563523646,0.7003855551354892,0.6229775159438157,0.07740803919167351
3038.4467231440954,0.8861980796651199,0.8163759448199334,0.06982213484518648
3051.754831876018,0.2850617430084757,0.26116890428284545,0.023892838725630236
3051.98390939813,0.31595500539285487,0.2920360165159628,0.023918988876892103
3052.0729595761204,0.3785811555059227,0.3533093005083883,0.025271854997534385
3055.58665020998,1.909865691250525,1.7966477275985604,0.11321796365196453
3055.645650935027,0.37226012244959406,0.22856852791577675,0.14369159453381733
3056.0381823633443,1.0400090991713729,0.8908169849148204,0.14919211425655243
3069.176730060784,0.4427817143746717,0.21219131313517786,0.23059040123949381
3069.865953855178,0.4538822447243502,0.2008233770186726,0.2530588677056776
3070.494708978556,0.4554143801529154,0.15449441093334276,0.30091996921957265
3072.827864063551,0.21206318480105513,0.07440316431137889,0.13766002048967624
3073.520480031288,0.22862459274548788,0.09505360148965744,0.13357099125583044
3074.863384401896,0.26847864152199724,0.18508011143559494,0.08339853008640231
3105.9792229189857,0.1498106813163758,0.061479398499703526,0.08833128281667225
3107.0197584040225,0.16525257242052854,0.07263318836036885,0.09261938406015971
3107.669547977511,0.19196861982212454,0.12001169914822227,0.07195692067390229
3118.349737846875,0.22883251432886836,0.013130953122016141,0.21570156120685222
3118.6339375155826,0.24565373539276816,0.016744650514890557,0.22890908487787762
3118.756511643148,0.23592661770253737,0.016838809162813117,0.21908780853972426
3125.469353903943,0.37944925360121956,0.04796020119349815,0.3314890524077214
3125.7397849776517,0.3805251570138006,0.05328745702052146,0.3272376999932791
3125.812810900699,0.39712725244446834,0.04157054549570118,0.3555567069487672
3134.016705438427,0.11204954956272589,0.012938372660539023,0.09911117690218688
3134.284946241797,0.13431841715121126,0.03134764566936286,0.1029707714818484
3134.70297923949,0.16800523764545955,0.09359040936321245,0.07441482828224709
