frequency_cm1,total_intensity,isotropic_intensity,anisotropic_intensity
3.910546451006723,0.0,0.0,0.0
1.702239161004737,0.0,0.0,0.0
1.5003405418638933,0.0,0.0,0.0
2.7835078673632635e-05,0.0,0.0,0.0
2.42788553151522e-05,0.0,0.0,0.0
1.6111441036740757e-05,0.0,0.0,0.0
24.421125800222026,0.0004070656079931226,2.695548763311657e-06,0.000404370059229811
44.155989274903,0.00036508502231499763,7.472468335025132e-06,0.0003576125539799725
63.20438292624665,0.0008336672760518651,1.9856208521933293e-05,0.0008138110675299318
75.86798564154468,0.0008446624115812269,0.00025953161693636784,0.000585130794644859
96.27383043780635,0.000595215508120052,8.811760866391992e-06,0.00058640374725366
113.06597923675199,0.0007762824326983291,0.00028961210571422195,0.0004866703269841072
136.86102169498054,0.0004580289591832096,6.445119666735467e-05,0.00039357776251585497
163.5438753634346,0.00018537170231845584,7.065610840827828e-05,0.00011471559391017756
216.2534138043087,0.0004283841865153056,0.00016298549596941635,0.00026539869054588926
227.33374033375833,0.004867825131009246,0.003952546925013387,0.0009152782059958587
246.38141962309905,0.0016427821643840246,0.0009913810923004476,0.000651401072083577
250.08351245280184,0.0009370256362948322,6.598413461790276e-06,0.0009304272228330419
262.95670876738313,0.00847205249545579,0.0068200611191942435,0.0016519913762615462
271.37459218678987,0.0015140278609799811,0.0008143827587805889,0.0006996451021993922
295.3974345169207,0.0026735968072923695,0.0022873352902055303,0.00038626151708683905
357.6680375179247,0.0009951012594464918,0.000900615881546052,9.448537790043992e-05
421.3276113860309,0.0027600533142702987,0.0015239107364564666,0.0012361425778138321
444.38135116052285,0.009051557397648635,0.0024632540730741455,0.00658830332457449
534.8183594273523,0.0024341775703355644,0.0017457808774323767,0.0006883966929031879
538.8217132641197,0.0013234318866614427,0.00028569006221489053,0.0010377418244465523
728.9060593487984,0.0009638216567035643,0.0005229507099687744,0.0004408709467347899
741.8377818825202,0.0019726468451509976,0.000868784312833746,0.0011038625323172516
763.1707657268959,0.01584928447839889,0.012825786043533795,0.0030234984348650952
787.6452671021747,0.00498749237368329,0.00025247845371553627,0.004735013919967754
796.2260248289755,0.024711632163527092,0.022105253696068996,0.0026063784674580943
854.5695422697456,0.0018728457014701822,0.00036578436964951897,0.0015070613318206633
863.4103968524523,0.0726294200183932,0.05642791283789136,0.016201507180501853
917.3261023887538,0.005320087324916959,0.0009396522177492967,0.004380435107167662
933.5917524373323,0.017152661543600074,0.0008859130803768427,0.01626674846322323
984.1219331991302,0.012116718215050235,3.76974874484708e-05,0.012079020727601765
992.7040398582596,0.007541893893044961,0.0048555217910728485,0.0026863721019721124
998.8002995552266,0.02463760499163467,0.012633439647173035,0.012004165344461637
1017.8888403424576,0.007981187659355179,0.0039367434032449265,0.004044444256110252
1029.1033472129307,0.007506828530634685,0.00014142809219764747,0.007365400438437037
1051.7798900697833,0.04421263557541354,0.016602294024210512,0.02761034155120303
1061.2223312054816,0.008322542968177754,0.002133492191079223,0.00618905077709853
1068.172867757372,0.019932616024885753,0.013846866840462577,0.006085749184423174
1085.5891580602383,0.01717710986661206,0.0037375911091274408,0.013439518757484618
1107.4434801774607,0.041829576289867935,2.262725640596461e-05,0.04180694903346197
1131.2610643816574,0.004214520635233544,0.0008838287420514078,0.0033306918931821365
1163.9799589055767,0.016594702870051364,0.0012552221810931512,0.015339480688958212
1175.7320026319658,0.029118531027796372,0.007633877860085321,0.021484653167711053
1197.4470525425015,0.03186274536549914,0.018695467410543155,0.013167277954955987
1209.9766217425624,0.005182686411311315,8.319432564164308e-05,0.005099492085669672
1250.846264044772,0.005429752379714835,0.0038079772355836873,0.0016217751441311476
1268.7687148370821,0.004170318525199145,0.0011612243198554733,0.0030090942053436712
1287.939392656456,0.007238813724620161,0.0033737997641333974,0.0038650139604867635
1298.621813568647,0.03465745590867574,2.3764054348625882e-05,0.03463369185432712
1315.8628647027306,0.0022555466664009693,0.0001988455555813873,0.002056701110819582
1320.0325211911654,0.010668389367736026,2.8950495124323454e-06,0.010665494318223594
1332.2793156624707,0.027152882026337987,0.0012905593399100321,0.025862322686427956
1334.7248751041318,0.009377904032653555,0.000407073803935028,0.008970830228718526
1345.0898696771712,0.0411177363787315,2.5557735726744597e-06,0.04111518060515883
1367.012003871864,0.012116654748822264,0.00017918208780038264,0.01193747266102188
1371.996398680031,0.008937545001036757,0.00011814723502638534,0.008819397766010373
1382.5300881816845,0.012002368150828271,7.38356582806515e-06,0.011994984585000206
1406.719309210136,0.006757270067960909,0.0017106683863159268,0.005046601681644982
1409.1151419113244,0.0006331007901464666,8.403182555964762e-05,0.000549068964586819
1410.6368784439394,0.0006790773347902852,0.00019276371424702357,0.0004863136205432616
1412.6199311180812,0.003125371045256056,0.0020455105327748914,0.0010798605124811645
1414.61642022897,0.00807620012299,0.00019817994856753503,0.007878020174422466
1419.589320510146,0.010800266539662165,0.0005200436241141338,0.010280222915548032
1479.768602946572,0.002594573431314877,2.99928134648065e-06,0.0025915741499683963
1481.1415121730156,0.04974649072528613,0.0038846077655664284,0.0458618829597197
1482.593961390771,0.07086396269355244,2.937800336368591e-06,0.07086102489321607
1485.1063609240273,0.0356370867872934,9.225037200339031e-05,0.035544836415290014
1488.07283882707,0.004108753292316733,5.7619309869831676e-05,0.004051133982446902
1491.0481202498331,0.01485755616699978,1.1858011933497488e-05,0.014845698155066282
1494.3919724425598,0.01332283577544012,1.4432936995536736e-08,0.013322821342503125
1494.4155245264053,0.06495961076956605,0.000441052765012605,0.06451855800455344
1498.9607561559626,0.0023074884501505665,2.8569820920444404e-07,0.002307202751941362
1500.7915927202675,0.012469768598690405,0.0004342683104787191,0.012035500288211686
1503.6308640872885,0.012299821809560534,5.728221398799484e-06,0.012294093588161734
1504.2943425145447,0.004243407258904978,0.0001926712292628807,0.004050736029642097
1509.4498142332175,0.00344441325512528,0.00014899210888182917,0.003295421146243451
3020.045859037506,0.30583436698310706,0.07652269751122628,0.22931166947188075
3024.959379578081,0.2516542468285486,0.16635287905778226,0.08530136777076633
3027.1173513766034,0.18373482518867898,0.1702647622000154,0.013470062988663574
3027.9230036680888,1.4511333759632765,1.2317428618617297,0.21939051410154697
3033.0567228996983,0.209278209727868,0.14498621092880812,0.06429199879905989
3040.4748221795176,0.01562880902880574,0.004562536893635773,0.011066272135169966
3042.5693638360617,0.40185996718977063,0.31802989722413294,0.0838300699656377
3049.4194566748333,0.1408781163481498,0.0032401806541303593,0.13763793569401944
3050.3709119026475,0.7925451538173112,0.7864281991777597,0.0061169546395514396
3052.20796358005,0.9811206480843859,0.8744940385572706,0.10662660952711529
3057.4530613320203,0.7511880712349883,0.40728714583038533,0.34390092540460304
3060.4257608651656,1.2141297682350958,1.182024646227737,0.032105122007358745
3062.5270641470383,0.15564113414875816,0.11311380644173344,0.04252732770702472
3062.688818563723,1.0358722628125807,0.6021654268725137,0.43370683594006704
3076.2001233181572,0.022034050666279302,0.0061027415139357985,0.015931309152343504
3082.0479342981744,0.3024240177436507,0.041413365256237955,0.26101065248741273
3086.672030335408,0.12524996553678852,0.010591060241089969,0.11465890529569854
3093.967920586637,0.010128263617309374,0.0004906362099593751,0.009637627407349999
3114.213964010087,0.12212322581376053,4.6905349051138507e-08,0.12212317890841148
3115.2890262911365,0.15149926720558943,0.009295483014479215,0.1422037841911102
3117.122889699609,0.3305514794973863,0.0005492126499244008,0.33000226684746187
3121.8481974576744,0.35718691299467636,0.047032500807006494,0.31015441218766987
3122.8710348892027,0.2939942416102979,0.05197406470435273,0.24202017690594518
3127.9686959579467,0.18596519352333074,0.0050562312886651235,0.18090896223466563
