frequency_cm1,total_intensity,isotropic_intensity,anisotropic_intensity
2.321323348068155,0.0,0.0,0.0
2.147891433581045,0.0,0.0,0.0
1.5233229233774939,0.0,0.0,0.0
3.589411610148494e-06,0.0,0.0,0.0
1.722368844985266e-05,0.0,0.0,0.0
1.8868975808968208e-05,0.0,0.0,0.0
26.510741170598475,0.003116006480810933,2.681601046190398e-05,0.0030891904703490287
39.174655760315716,0.003572503543244511,0.0001758063420569663,0.0033966972011875447
44.71992618132009,0.0022923574440313773,5.9727634746553705e-05,0.0022326298092848235
50.10280549147922,0.0019190023584991233,1.5582475923422804e-05,0.0019034198825757006
58.3595700238356,0.006187593867086151,5.458580680246322e-06,0.006182135286405905
65.38834969738775,0.0024172655823805358,2.7093463292547873e-05,0.002390172119087988
74.20933679919249,0.0010580457887774041,0.00045776007794210956,0.0006002857108352945
79.8752927149882,0.0021104548442379837,0.0005512507901374673,0.0015592040541005166
90.28600350107479,0.0008324686969262554,4.218359849456469e-05,0.0007902850984316907
96.27953606491427,0.0004212467310598756,7.294748632328826e-05,0.0003482992447365874
105.59639813400803,0.0006611618422591879,0.00020491510388135985,0.00045624673837782806
198.4600857684196,0.0016074501939165522,0.00036989485837694993,0.0012375553355396022
205.0109643074937,0.0017261149536774193,3.714889576230224e-05,0.001688966057915117
209.94191795591777,0.002780838757869601,0.002357017438164826,0.0004238213197047751
241.15927514245888,0.0011910028052879791,0.000609447045076351,0.0005815557602116282
255.1001882995067,0.0017908965591468206,0.0014576813960410259,0.0003332151631057946
274.21457824922146,0.0016306593456683798,0.00020552905889755537,0.0014251302867708245
283.0892116539629,0.002146657779077794,0.0010027517143204486,0.0011439060647573458
330.165389611008,0.006096110397546409,0.004732974220724414,0.001363136176821995
353.0610395237114,0.0006179654068957026,9.020376069119203e-05,0.0005277616462045105
369.53180288173763,0.00405213502197967,0.00012169123584101117,0.003930443786138659
402.7889459592496,0.009475606571043557,0.0014316586254574546,0.008043947945586103
428.3515863753967,0.003071702056763924,0.0016880776510561383,0.0013836244057077855
452.25900670280623,0.004613300259423478,0.0028927955433966064,0.0017205047160268713
484.5962726240697,0.0035147657375348305,0.0009720177011716187,0.002542748036363212
524.8058633799315,0.005862552410983393,2.86366393133572e-05,0.005833915771670036
578.5796920804877,0.0073326430018945815,0.0006395360224150774,0.006693106979479504
583.138367660024,0.007330349059364525,0.0047026800043416484,0.0026276690550228765
606.2992002018817,0.003810536287909787,0.0024110953462502375,0.0013994409416595494
617.2287620589866,0.0018570422700671385,0.0002212319641529706,0.0016358103059141678
621.464937332726,0.011674803664754606,0.0027853451029549244,0.008889458561799683
654.5427914541721,0.03034072955868815,0.023115740121255335,0.007224989437432818
672.9246908211337,0.009245056694378584,0.0002055686213740068,0.009039488073004576
790.0771941220995,0.048631290371063604,0.0458123142705399,0.002818976100523699
824.2410552530964,0.06170076476923259,0.05465739263658527,0.007043372132647321
861.8327318733026,0.014734539810092357,0.002036865601950223,0.012697674208142135
866.7809090352939,0.06407354229650501,0.05813651038295973,0.00593703191354528
920.0202602788859,0.02110106053876021,1.3301135465685881e-08,0.021101047237624744
947.0879424730642,0.017411817169669802,0.0022521975802897993,0.015159619589380002
953.5245264059582,0.005767729623041832,1.0313821600257562e-05,0.005757415801441574
999.2291236875272,0.009152711825509542,0.006296461266955408,0.0028562505585541333
1002.4540314055985,0.01041327210652772,0.010177643718865046,0.00023562838766267392
1011.6894763818841,0.02418498051758179,0.0167268709444833,0.0074581095730984915
1020.8031453274774,0.010874790516288674,0.0021972839596144287,0.008677506556674245
1061.2114728335857,0.006435952828963608,0.0010080937561630075,0.0054278590728006
1065.3751029027428,0.0011556549184663935,0.00044541307684906625,0.0007102418416173272
1066.5215248725137,0.001209191428656831,0.0003786166313951986,0.0008305747972616324
1068.6246629489099,0.0004939298234309696,0.00024182270265976508,0.00025210712077120456
1079.911012337483,0.008832899219349937,0.0001644971123722236,0.008668402106977714
1092.8557193884114,0.011301466008232291,0.003932438653337997,0.007369027354894294
1114.2025298102624,0.0061899917027018235,0.0006125125297357342,0.005577479172966089
1214.7441745793503,0.006420268084159756,0.001246648483419213,0.005173619600740543
1220.1417958237976,0.012962839868428421,0.0005415064159130375,0.012421333452515384
1248.6541342690018,0.018674014185729924,0.0009917863250526965,0.017682227860677226
1266.999393171132,0.011432758928015697,0.00033791530603686647,0.01109484362197883
1272.7728930244843,0.015985063673796193,0.0004237514279894332,0.015561312245806761
1274.0379324321884,0.011610548704123152,0.002624907220290993,0.00898564148383216
1321.0826612374617,0.027663267658253506,0.0013379005840045513,0.026325367074248953
1336.8316563754781,0.006311267951886481,0.000104707557715207,0.006206560394171274
1354.5963746991374,0.013127988063055875,0.00017739665985110263,0.012950591403204773
1393.4835787760103,0.0033107992383995108,0.00129856441029509,0.0020122348281044204
1394.5223444471624,0.0019620335661210326,0.0014283706823162911,0.0005336628838047415
1400.5013140787582,0.0026453802115055554,1.2269940098449815e-06,0.0026441532174957105
1410.9194023080531,0.004372795619920402,0.00011181189112421402,0.004260983728796188
1412.3595738975498,0.0068824480427772255,0.000474913910785026,0.0064075341319922
1423.078184254302,0.0065328528691140815,0.0013950646192660997,0.005137788249847982
1437.0477864657412,0.002259939741183018,0.0006570232143433375,0.0016029165268396804
1465.3403757894714,0.02011706587622651,0.0004127349139275581,0.019704330962298955
1467.3808127068812,0.017046513874128016,0.0006625658125926837,0.01638394806153533
1472.0006891042915,0.02757402649455663,4.9139235081312454e-05,0.027524887259475318
1472.381046400513,0.02697724243965047,0.00016401245765585722,0.026813229981994615
1474.5556393855204,0.0044128790396614865,0.00014380967791094768,0.004269069361750539
1478.82063906109,0.025850740012132528,2.8324384462325645e-05,0.025822415627670202
1483.283985507343,0.0355857853095978,0.0001012648755159164,0.03548452043408189
1495.6752120077338,0.04561637464389698,0.00804592920547934,0.037570445438417636
1506.4500849183607,0.03105773721928155,0.008251943573993174,0.022805793645288376
1508.6777743998878,0.016035137360847537,0.007183817153976866,0.008851320206870673
1516.3418337115215,0.0217117297773725,0.004334104872565083,0.017377624904807414
1828.1269908015645,0.026445500320247457,0.01963546003776139,0.006810040282486067
1832.9984774672519,0.016015707443195117,0.003621961123913163,0.012393746319281954
1841.8526605952395,0.12938577206517426,0.07260758360467232,0.056778188460501935
3068.824617933447,0.45942960684424783,0.4502463953562449,0.009183211488002933
3075.248970953311,0.7396361633694075,0.7084478463019853,0.03118831706742221
3080.6245347240756,0.7581661653208555,0.7535315087367975,0.004634656584057909
3082.6645846630963,0.839296010827228,0.8280891887345604,0.01120682209266766
3088.3170943068594,0.6130725636380463,0.5218927774618717,0.09117978617617462
3107.8272330247605,0.05344407080713269,0.01600125600409169,0.037442814803041
3110.5398812851217,0.7776776905932921,0.7301079934777317,0.047569697115560416
3138.5294368993473,0.15122007645879576,0.01060029700769354,0.1406197794511022
3144.308373498253,0.17606326642857167,0.004665352720346331,0.17139791370822535
3146.717815746079,0.178321257585586,0.002880276854750079,0.17544098073083592
3148.704888600529,0.1913488774577306,0.004587958172643407,0.1867609192850872
3155.6562466801247,0.146360157461508,0.0005225474796904945,0.1458376099818175
3162.3464338209214,0.16028135409917146,0.03095892837781362,0.12932242572135785
3165.70203100815,0.2022477051778876,0.017392921004051307,0.18485478417383627
3177.027789696559,0.1268423762678951,0.018724706550780824,0.10811766971711427
3188.253165054745,0.2684135596056533,0.06218648106710736,0.20622707853854588
3190.981194460338,0.2886567485892025,0.029026256604884466,0.25963049198431803
3191.2687912505735,0.2621781172509396,0.039163809430098444,0.22301430782084117
