frequency_cm1,total_intensity,isotropic_intensity,anisotropic_intensity
2.6674877252567764,0.0,0.0,0.0
1.076010069734914,0.0,0.0,0.0
2.611854740146127e-05,0.0,0.0,0.0
6.67605985939295e-06,0.0,0.0,0.0
2.1208534634830935e-05,0.0,0.0,0.0
0.8651703451654978,0.0,0.0,0.0
30.33290128889746,0.0059062889187254265,0.0013022539230602551,0.004604034995665172
47.00698165090434,0.006817804827147079,0.0005975291110852549,0.006220275716061824
87.74494869308023,0.009023411963934056,0.0021659603048477883,0.006857451659086269
90.74757973490611,0.028941162305215623,0.006343382745532451,0.022597779559683173
124.96590702038081,0.01500044952859306,0.0013040425870937745,0.013696406941499286
128.9544195581093,0.023711807234647497,0.009189783858583375,0.014522023376064125
191.64172757537827,0.049094441440656805,0.02083304031188094,0.02826140112877587
214.0455162756188,0.6650267521358355,0.2837092666651878,0.3813174854706477
245.25406400625886,0.024899475617050547,0.0082825368882663,0.016616938728784246
254.36479968397714,0.052723607363113933,0.011540866630294534,0.0411827407328194
289.19959725346774,0.1609993684149646,0.044470996035987954,0.11652837237897665
309.87360277032593,0.019060529056808495,0.0032803161631499967,0.0157802128936585
336.5093615393298,0.02350760215888742,0.004133600410700512,0.019374001748186907
353.49270229949565,0.036052797768139085,0.0065518513863895836,0.0295009463817495
390.81381771509024,0.017913048135929054,0.005291305412627744,0.012621742723301311
398.80808288889597,0.0026546421142190453,0.0010923974200986097,0.0015622446941204354
430.12753224135525,0.007345544463858342,0.00142130610130037,0.005924238362557972
446.2739695747226,0.06168403334053499,0.03321518711574785,0.02846884622478714
468.843296600608,0.06545175750511942,0.039141213047844896,0.026310544457274522
484.34374697199024,0.0042065909254793005,0.00102959618604271,0.0031769947394365903
492.72575058174823,0.24956833422334793,0.09699132481639944,0.1525770094069485
503.7933153035533,0.011557735999622405,0.0006898763218124966,0.010867859677809908
554.5441075757631,0.010236273688184118,0.00494843162503621,0.005287842063147908
565.5363846209399,0.0617802913268924,0.04358321374801414,0.01819707757887826
597.620724266559,0.039808910435196895,0.0032615643595823576,0.03654734607561454
612.1621933767049,0.06541538955524306,0.004818763127134957,0.060596626428108105
637.2262720211344,0.01161224293322481,0.0001912371812510598,0.01142100575197375
646.8065986511792,0.023324506479661493,0.014298630892409934,0.00902587558725156
668.0697721694626,0.04133574056232885,0.005424214794688386,0.035911525767640465
720.6787023162707,0.01362417632597035,0.0008373429399122747,0.012786833386058075
736.3881155108,0.4263109387568328,0.3069542719219698,0.11935666683486303
745.7826731794933,0.07200302094870531,0.027425959421426862,0.04457706152727845
765.3943769368943,0.004533509552230869,0.0007343907416526378,0.003799118810578232
776.8486664821969,0.004463965418325892,0.0009210865308960371,0.0035428788874298546
779.8115182449542,0.2788389307133856,0.10285855343041875,0.1759803772829669
801.7239159851066,1.2737778033919236,0.940761528374299,0.3330162750176246
826.8100622787373,0.07361083870744865,0.009417721741880561,0.06419311696556809
847.5943390221103,0.05516105524640244,0.020356466848932667,0.03480458839746978
862.0005029047115,1.388149354364621,0.7647995298349928,0.6233498245296283
871.5466263783512,0.045764118463215854,0.00026640217273560024,0.04549771629048025
884.839756005682,0.01047598610102518,0.0009522402587723195,0.00952374584225286
920.4169019289026,0.26548623067662913,0.13870742954957288,0.12677880112705628
922.9184922704488,0.08321190483420073,0.02667260061599751,0.05653930421820322
929.4619054082956,0.09802415154776381,0.014809499149132592,0.08321465239863121
958.7990725177567,0.03704289090844196,0.0010563511507470326,0.03598653975769493
979.2650594489393,0.27630626123380836,0.0318070679997134,0.24449919323409494
994.9641403318838,0.00836169082049345,0.00017334889814170004,0.00818834192235175
1003.4292806183131,0.5418727178041778,0.2939973119027676,0.2478754059014101
1012.7689999602997,1.8889593016921586,1.0145583079742344,0.8744009937179242
1016.8201099426219,0.0014407970934705557,0.00015129902773314575,0.00128949806573741
1037.8571156451833,0.02894640578745938,0.00010492028033640457,0.028841485507122976
1043.2859670174073,0.22465486500275977,0.14391727978695074,0.08073758521580904
1067.5739033717816,0.21401516778247154,0.04033518317464525,0.1736799846078263
1109.072592250263,2.805798977495668,0.7219760391660418,2.0838229383296265
1127.9163873992818,0.4818957099875324,0.259627088066365,0.2222686219211674
1162.5823535013837,0.6167058524902492,0.14570469121814786,0.47100116127210134
1166.2615817275014,0.6020432711147441,0.3116696411305466,0.29037362998419747
1166.4412332413049,1.4895568432973423,0.4718919364206086,1.0176649068767336
1173.3411806818979,0.28134897821854243,0.003757184478344863,0.27759179374019755
1187.104734968048,0.4725157525510435,0.01187098407816601,0.4606447684728775
1200.56234835565,0.8338109876766773,0.4059055279878149,0.4279054596888624
1204.798444099575,1.9968891719328883,0.9021801856385218,1.0947089862943664
1223.1666981484047,0.5315898669466271,0.26748505333862754,0.2641048136079996
1264.745697340268,2.1489337149100627,0.49614237005985284,1.6527913448502098
1272.3456828925243,1.1469631833459681,0.6399731026495431,0.5069900806964251
1303.8262023179213,0.035263852147048115,0.02147831941281192,0.013785532734236194
1308.1150079795425,0.19174021350910816,0.15376240912972375,0.037977804379384424
1328.680266796658,3.8106858450434737,1.8358189862498984,1.9748668587935752
1341.437622908675,1.9971247021255438,0.7034079635742584,1.2937167385512855
1365.0279943530247,1.101108406179871,0.2583706637766335,0.8427377424032376
1384.1340259006606,2.6016627780429316,1.1178765176943508,1.4837862603485805
1411.179603063072,4.094159936239432,1.4701804804178336,2.6239794558215985
1415.7066666643386,1.6082241534329553,0.26148582615916277,1.3467383272737925
1435.701776467732,2.8945745929999402,0.9183375242082992,1.9762370687916408
1441.6686086030934,0.4780735157430478,0.14820793110688013,0.32986558463616766
1477.4372584376172,4.266025598291959,1.6852192814965885,2.5808063167953703
1486.704290228366,0.3372332402472323,0.2221894837583047,0.1150437564889276
1503.808540148119,2.3356038895606033,0.25170491083035545,2.083898978730248
1524.4630742456734,0.5812047630267891,0.12548383747942563,0.4557209255473635
1535.9449716165432,1.121272086721597,0.9145201409226252,0.20675194579897174
1546.0296130374265,0.08675609030026309,0.018912709920626086,0.067843380379637
1575.1022001505435,0.26604813236915337,0.07956882603788976,0.18647930633126364
1598.5557578264602,2.7580700729224024,1.5486820352926178,1.2093880376297843
1632.5201511142006,0.7615548191871152,0.037435009041076155,0.7241198101460391
1673.8095196444626,0.7922815015099272,0.20352946163863678,0.5887520398712904
1684.2017952995582,1.119381603520181,0.7896389852141534,0.32974261830602747
1713.184669978441,2.109152469910346,0.433615372865553,1.6755370970447931
2864.2300789392234,3.328333198751435,0.7136230430133857,2.614710155738049
3069.5694008260066,1.310468774121735,0.8572673956758127,0.45320137844592223
3157.99860644554,1.3772479391287333,0.032914517267984146,1.3443334218607492
3164.3648206779094,0.6915647427129393,0.0005364912928600026,0.6910282514200793
3167.467021985826,2.3190471314115495,1.2088534338608932,1.1101936975506566
3179.1138803790946,0.300766716174156,0.24633765595896642,0.0544290602151896
3183.8489643893417,1.5574692227220277,1.081013879171557,0.47645534355047076
3190.5198816747516,0.25184319173997427,0.021763298772783164,0.23007989296719109
3206.616824616537,0.6420476089333442,0.028731795984690674,0.6133158129486536
3218.522857625839,2.092280056318445,1.4657741519022838,0.6265059044161613
3224.046134791163,0.8729726985621331,0.6046136266839018,0.2683590718782313
3224.1045656528063,1.272624448738179,0.7588898577884842,0.5137345909496948
3296.9627984458934,0.4056618489076167,0.1773547353908581,0.2283071135167586
3422.63819650126,0.46908497769533775,0.18433362350800545,0.2847513541873323
3859.7799728733066,1.1974069807028744,0.6447378195072636,0.5526691611956109
