frequency_cm1,total_intensity,isotropic_intensity,anisotropic_intensity
6.224678535223888,0.016722813723764413,1.0223971786510483e-05,0.016712589751977903
1.8510266590277995,0.0,0.0,0.0
1.4693959458082437,0.0,0.0,0.0
1.3093770942941166e-05,0.0,0.0,0.0
1.675615319036119e-05,0.0,0.0,0.0
2.3166596713080157e-05,0.0,0.0,0.0
1.2263702127950167,0.0,0.0,0.0
34.88905868052166,0.004054039917903885,8.094849695045123e-09,0.0040540318230541895
36.35380859321138,0.0388672949104179,7.852729605839412e-05,0.0387887676143595
61.17259066330433,0.029951933402800293,0.0001192162083841172,0.029832717194416176
75.68996795919159,0.0059471352521235366,3.939927508007794e-05,0.005907735977043458
90.00641685520131,0.00048105291630735913,2.936032986675337e-05,0.0004516925864406058
135.01207231834675,0.004766844078019255,0.003883174017259355,0.0008836700607599006
165.490326978648,0.005725457871482929,6.57508917679018e-05,0.0056597069797150274
190.06928250609468,0.0015236538519762673,7.583605605171105e-07,0.0015228954914157501
221.63992138356278,0.006862127626097052,4.571494726413985e-05,0.006816412678832912
226.54346396987015,0.001395517841729695,1.1519880151752478e-05,0.0013839979615779426
235.30388489891993,0.012069182219476796,0.009065161416013559,0.0030040208034632357
249.4295927225025,0.024583858250032804,0.01965181956700073,0.004932038683032075
306.2627538945005,0.012690555594235648,8.613548398407404e-05,0.012604420110251573
320.49333577112054,0.005201859515587256,2.6883725823752125e-05,0.005174975789763504
350.5973738848675,0.002965588341688961,0.00022896003185340013,0.002736628309835561
393.1582596246325,0.005635738343802193,0.003384730072958443,0.0022510082708437494
407.9727682860722,0.00011196409427191596,8.02657412777485e-05,3.169835299416746e-05
412.6924055043656,0.0009447288177680453,0.0008988388294621597,4.5889988305885623e-05
421.9770663990537,0.009607444769300217,0.006209195230660399,0.003398249538639819
435.301054169,0.002807021599277474,3.154002121218126e-05,0.0027754815780652925
457.63622422733886,0.00017557593116507224,0.00012797422740768122,4.760170375739103e-05
482.5453736377128,0.001940615621694259,2.5998467483356012e-05,0.001914617154210903
524.7147355817027,0.003575574897950951,0.0022928078008207418,0.0012827670971302092
555.4488537268658,0.0017627016818514238,8.425147611061265e-05,0.0016784502057408113
623.7727060371072,0.025515970968421002,0.01895424053430595,0.006561730434115051
631.4187763587598,0.01667306383566062,6.552400756516185e-05,0.016607539828095458
633.8006957794946,0.012559233175365486,0.0029705593776512247,0.00958867379771426
701.7605157447606,0.04347155356334584,0.041469566050584335,0.002001987512761504
716.305886867829,0.0011401198712125782,0.0007049681992233137,0.00043515167198926447
720.5269717936718,0.012919611183136018,0.0088393947998488,0.004080216383287217
724.4080118285932,0.0035817392221695315,0.001495399227008934,0.0020863399951605976
740.4032492837354,0.0030473153740359867,2.16821830418902e-08,0.0030472936918529447
770.7043075585926,0.0009536304595011542,6.477683953767886e-05,0.0008888536199634753
781.8389771342501,0.003650629511257127,0.0009556207461000571,0.00269500876515707
802.8807386674196,0.002246115311135532,3.27324428890844e-06,0.002242842066846624
829.2257268666211,0.0716482928393809,0.0598623912328153,0.011785901606565603
865.026246065873,0.003856137991791426,0.00030602950248611905,0.003550108489305307
874.5769501098196,0.0018113683457428556,2.0601929661087572e-06,0.001809308152776747
881.0470822176404,0.003219929349907192,7.647787810592277e-05,0.0031434514718012693
888.8506806422749,0.0006084977865635093,6.628326965197223e-07,0.0006078349538669895
909.0713768463995,0.006167191775736175,1.2427505514538695e-06,0.006165949025184721
946.265799433166,0.004626151752670168,1.442817167882157e-08,0.004626137324498489
957.2467454406159,0.0018003866352809083,0.0005743772639671576,0.0012260093713137507
965.0809170570778,0.004440115843499301,0.0005865486242870423,0.0038535672192122586
1016.954260823251,0.00053062487083971,0.00038997034053280037,0.00014065453030690964
1020.0300397126366,0.0005434353673606655,5.09919122302386e-05,0.0004924434551304269
1025.5956419132838,0.0482785364220725,0.01080111373560787,0.037477422686464625
1026.2358172351526,0.34438799549244303,0.32675573462457586,0.017632260867867157
1034.8469515427003,0.011227298046729972,0.007052412031129135,0.0041748860156008375
1038.7549626871848,0.0004586389811538449,0.0002443741696402579,0.000214264811513587
1039.5934068491613,0.001126745470994521,0.0007881688986834006,0.00033857657231112036
1058.7991315167515,0.005937232940695792,0.0002877203384688873,0.005649512602226904
1060.116864161847,0.08964675672886413,0.05166499812823362,0.0379817586006305
1061.4366508815804,0.18261977096371074,0.17015337741705347,0.012466393546657272
1062.2763934899663,0.10780059387369591,0.05679755627596716,0.05100303759772875
1103.590589188759,0.005896388449103033,0.0024784586267259175,0.003417929822377116
1107.5125983857238,0.00029099397402833056,0.00010011595611834353,0.00019087801790998704
1114.7398611162657,0.0025793187294759785,0.0020548093503912953,0.0005245093790846833
1117.7081993994066,0.014837603897242051,0.013777062883661281,0.0010605410135807708
1138.9542864761918,0.006947885523079098,0.006644604665683824,0.0003032808573952744
1143.28313871696,0.13064885306345725,0.125994594620686,0.0046542584427712586
1151.6403456168132,0.022863293663741773,0.00011468929248658381,0.02274860437125519
1166.9309258974413,0.004281535749146959,3.5351241500971104e-05,0.004246184507645988
1177.662977159592,0.02015706876990246,6.677378807101908e-05,0.02009029498183144
1178.2332070562327,0.015516003812286227,0.0002687659236373918,0.015247237888648835
1207.0578961170613,0.01251397470261769,1.962777853418143e-05,0.01249434692408351
1211.8488864852957,0.014026197884008851,0.0009679793154771619,0.013058218568531689
1230.3946190736883,0.06978076753629163,0.03314389889331639,0.03663686864297524
1253.9619345423698,0.03871692570887738,0.031501627691744555,0.007215298017132823
1291.187127243943,0.026319801372609364,1.6865466043935596e-06,0.02631811482600497
1299.6318741309897,0.0016297492065311928,7.409361655327114e-05,0.0015556555899779215
1306.7010796755385,0.008688226366437873,0.005662628166977292,0.0030255981994605826
1310.9747117387774,0.05622247898448588,0.0009124542950787984,0.05531002468940708
1318.9619923446182,0.002428999883962825,4.81833738994281e-05,0.002380816510063397
1335.852640176479,0.004780045371822432,0.00045677795533891996,0.004323267416483512
1350.4435320649795,0.0018168706251076555,5.321485524506711e-05,0.0017636557698625884
1354.9859706648567,0.00019978874740446656,3.2555657371656915e-05,0.00016723309003280963
1358.6552856591709,0.001427274001554402,0.0010654469659126856,0.00036182703564171636
1385.000753486946,0.0012700710240525904,8.111766655368483e-06,0.001261959257397222
1390.0498366876657,0.0037309859961078403,0.0017337742776752927,0.0019972117184325474
1399.0447939310193,0.0018490906950533851,2.9151926813484495e-05,0.0018199387682399006
1407.5483637282748,0.014461029337892145,0.00011847688964779641,0.01434255244824435
1480.312340971979,0.004934906724059417,1.1208273461716896e-05,0.0049236984505977
1483.2276914793522,0.04555222377536311,2.1278002225854196e-06,0.04555009597514052
1483.714044887616,0.01840326544745829,0.0013635075040914226,0.01703975794336687
1484.9398150783502,0.034149459094455804,0.0008663262871218369,0.03328313280733397
1489.8213359994995,0.011504971266199177,3.2230454457740654e-05,0.011472740811741437
1494.3966839356676,0.004150501071709535,0.0002086625550479854,0.00394183851666155
1507.1499625951712,0.010273125505804425,0.0003730667313036484,0.009900058774500778
1532.329535197224,0.002445947323152876,0.00029689646964920895,0.002149050853503667
1535.215911791493,0.029754442039083485,0.02849651318493183,0.001257928854151653
1648.9726378255143,0.038215472154832994,1.858011718121267e-09,0.03821547029682128
1652.9953520494225,0.027028944265211796,0.0017876564374446967,0.0252412878277671
1670.2006590030446,0.12047174460977739,2.4966107569309066e-05,0.12044677850220807
1671.1196714701841,0.18495671559618473,0.014030243840952642,0.1709264717552321
3026.183257703312,0.5479232263496052,0.36861973851974195,0.1793034878298633
3041.0189071238588,0.5868569197720941,0.27709332237197254,0.3097635974001215
3044.2659406507537,0.056910955580466834,0.0012474756246005033,0.05566347995586633
3057.396851918307,0.5401028124693786,0.43508337899916355,0.10501943347021511
3066.175547151709,0.9787514940299914,0.8611016184888202,0.11764987554117122
3066.9645783847573,0.3638846598084554,0.02337355436238063,0.34051110544607477
3090.1642392583212,0.6592657128600312,0.38272670171768863,0.2765390111423426
3093.915339555006,0.10882512800063382,0.03293466420188083,0.075890463798753
3096.4916586063628,0.9749312423722918,0.5820998564557814,0.3928313859165103
3114.3921513753935,0.21438204507443007,2.1034155591777634e-05,0.2143610109188383
3119.2506497775485,0.06974739353046532,0.00010848806904794299,0.06963890546141738
3184.517397967068,0.15869016301754307,0.0005178966078371817,0.1581722664097059
3189.540076731126,0.22557942958446828,0.04189164947788283,0.18368778010658546
3197.273459733388,0.2552037037935316,5.52441634455595e-05,0.25514845963008603
3198.2334963661847,0.20238466094788207,0.0004182477883807737,0.2019664131595013
3206.542681564128,0.19959644570419915,0.0022057769623774048,0.19739066874182176
3207.3653218347663,0.4468624403266904,0.07055967209516925,0.3763027682315212
3214.481823621567,0.2566133157520045,0.004327548901234949,0.2522857668507696
3214.9764065626787,0.20968524703607855,0.09533999285072807,0.11434525418535049
3223.3095431714682,0.8874410777020537,0.5125848814390528,0.37485619626300093
3223.8753152083727,2.09951902188346,1.9099167325663062,0.1896022893171538
