frequency_cm1,total_intensity,isotropic_intensity,anisotropic_intensity
2.164958544899321,0.0,0.0,0.0
0.8911582848737858,0.0,0.0,0.0
0.7868942030942926,0.0,0.0,0.0
2.5389402212387345e-05,0.0,0.0,0.0
1.4720631639764362e-05,0.0,0.0,0.0
2.241728597885868e-05,0.0,0.0,0.0
9.623735107798025,0.0050132342889319635,6.733338966641144e-05,0.004945900899265552
12.648968338882737,0.003201443995513435,7.648358816856064e-05,0.0031249604073448744
23.494241649940452,0.005165071500716801,8.474023984868713e-07,0.005164224098318314
29.536490072336083,0.0024521443212259806,0.00017142172642334555,0.002280722594802635
45.16780497803185,0.0035863437313847788,0.000799734797166216,0.0027866089342185626
58.62446383862418,0.0024720624664220617,6.592905245656071e-05,0.002406133413965501
65.12271882565359,0.001572771755495294,2.406757799122423e-05,0.00154870417750407
78.42177938377536,0.0068305786663841505,0.0010092161311732878,0.005821362535210863
90.9595371155381,0.009390143959688058,0.00037650561140682,0.009013638348281238
105.38072361756947,0.008216062266753268,1.1562229510659688e-05,0.008204500037242608
108.37511364313741,0.0005965682487969027,0.00010620783201022127,0.0004903604167866815
132.8694470892385,0.0014809826304546352,0.0007556976210887868,0.0007252850093658485
149.51005764688944,0.0008422147363316239,1.8863769515909336e-05,0.0008233509668157145
167.91084297292525,0.0070953781242641,0.005800990806248163,0.0012943873180159373
199.0711435626841,0.00047551771881589966,3.713442756814224e-05,0.00043838329124775745
210.75537436276872,0.0026619728367446973,5.89986255381586e-07,0.0026613828504893156
217.24459386010886,0.0033006899756999075,0.0019398439423627264,0.001360846033337181
234.463841586949,0.0008189494382590775,6.243692864195777e-08,0.0008188870013304356
252.89407565065414,0.014013225769578226,0.009975792852979054,0.004037432916599172
257.4119632255808,0.003684172057599412,0.0024504140210682246,0.0012337580365311875
279.1847212086961,0.004184098780786814,0.00012830269183158343,0.004055796088955231
316.7142908128072,0.0004003972579032984,5.886088414919192e-08,0.00040033839701914925
325.17290708324236,0.00943045372969675,0.0036608336642833155,0.005769620065413434
332.71524321792737,0.00146794499746867,5.25455967688452e-06,0.0014626904377917855
343.3807914581127,0.001188643545947954,0.0009033485502065075,0.0002852949957414466
350.29317225761025,0.004676654890903631,2.679912998716932e-05,0.004649855760916461
391.9029443516042,0.007678438523744311,0.004795276889574092,0.0028831616341702198
399.4782544173763,0.003957345771774429,0.0006508912159081517,0.0033064545558662774
428.4283059493912,0.0057670228253099,0.002298855297243358,0.003468167528066543
438.42468230353603,0.016046437916607998,0.009240478823059447,0.006805959093548551
445.21071718742076,0.004134466654609681,0.0015904468513579793,0.0025440198032517024
456.1853238444717,0.0050402193369818915,1.1769761058219681e-07,0.005040101639371309
467.34164245034594,0.0030262248070981983,0.0016305956914962009,0.0013956291156019972
473.5855879733646,0.01906786201916397,0.014784567023185369,0.0042832949959786025
490.70732477658026,0.0017442120712396294,0.00019644707252808826,0.001547764998711541
516.5729390508691,0.0017952283356731848,0.0007385590337412272,0.0010566693019319576
534.5742387809144,0.008181784230102756,0.005044602209469297,0.0031371820206334586
570.0947311506234,0.0027862751737951995,0.0005421813316273239,0.0022440938421678758
579.7091355567524,0.0019691530757281342,0.00025141341160658,0.001717739664121554
591.1461397912466,0.0067597253941603305,0.004792811463231708,0.0019669139309286218
634.139242102599,0.00645800882875188,0.0021237965991279953,0.004334212229623885
652.3844137329525,0.026813461528776537,0.0005777872624970447,0.026235674266279492
725.5816211367214,0.010407777631859785,0.0035899693003285365,0.0068178083315312485
743.3648359590004,0.027286846366427215,0.021534410363527844,0.005752436002899371
775.1014943748713,0.001358171560820349,0.0002427849399764641,0.0011153866208438849
783.1414484585716,0.0574224064684471,0.03939290667108101,0.018029499797366094
794.0969321022486,0.027227620369491785,0.011912337130853923,0.015315283238637862
800.9418320159418,0.002882465048106229,0.0010921361308617024,0.0017903289172445265
814.0405864720946,0.0923492331761763,0.0823074388163814,0.010041794359794888
836.8832887659208,0.0018717350909633911,0.00021020648612178562,0.0016615286048416054
848.0191977252938,0.007810299541201138,0.0026622476436238404,0.005148051897577298
851.3818176021867,0.03173671831404593,0.021309756398823782,0.010426961915222148
857.5846363223969,0.0025811292546133115,0.0006183180526302388,0.0019628112019830727
874.1410834387134,0.10563635021960072,0.08812413887481736,0.01751221134478335
876.5929509005706,0.014654313609818738,0.010735343246208362,0.003918970363610375
892.4360258634779,0.0015479999854790326,7.83016347293214e-05,0.0014696983507497111
904.2864153434044,0.0008165895349461333,9.493976938054104e-05,0.0007216497655655924
905.5421267178552,0.023603826863212253,0.020161129664592103,0.0034426971986201505
913.3059015071829,0.0025099095762370497,0.0014456461855857706,0.0010642633906512789
918.4550232087547,0.0024182228801947186,0.0008446611998959663,0.0015735616802987522
947.4243603035233,0.0038510940508075056,2.7271112442725114e-05,0.0038238229383647806
961.9644181609656,0.006721313428911337,0.003105733972922423,0.003615579455988914
995.1367213104808,0.001039003711923092,7.331779779339237e-06,0.0010316719321437529
997.7384047038828,0.03391731120864487,0.030460163758652306,0.003457147449992567
1006.4962178186559,0.002832298913859056,0.0013299912509790533,0.0015023076628800029
1012.6814653867913,0.01379721320564647,0.0025341367306851797,0.01126307647496129
1017.1571590934577,0.01747202695185663,0.0033708106742738808,0.014101216277582748
1027.8766862245461,0.016540986696129478,0.0057070297740640236,0.010833956922065454
1049.1060598002837,0.06149938095239613,0.0019195417714487593,0.059579839180947364
1053.3595702015068,0.014808143046090419,0.001123697053344757,0.013684445992745662
1068.2553977405425,0.015179655239541201,0.0007044641257927789,0.014475191113748422
1073.937320579842,0.011720940182190172,2.7915866723907762e-05,0.011693024315466264
1077.0509388019013,0.04419658119110666,0.00804303614989746,0.0361535450412092
1094.1387580822854,0.009842630537670144,0.00032742676113918756,0.009515203776530957
1097.1255225011776,0.01118828653482261,2.4592025735689158e-05,0.01116369450908692
1099.4521404252027,0.01112503250883201,1.7812946355409534e-07,0.011124854379368455
1101.3666612913773,0.041077872458861936,0.027240326624163612,0.01383754583469832
1120.44081855781,0.01920994356004532,3.569400614945732e-05,0.01917424955389586
1126.9566268390345,0.001701757613746033,0.00045489696464598726,0.0012468606491000459
1142.654418329169,0.003141555082401439,0.00011445932669359622,0.0030270957557078427
1144.9579576312592,0.00536512960548634,0.00023825075535377025,0.005126878850132569
1158.1796854621623,0.01869073282094688,0.015106830596024131,0.0035839022249227505
1167.906096257655,0.032741091655265765,0.022391390199736804,0.010349701455528961
1175.4601545036303,0.022192505162247647,5.304441097472577e-05,0.022139460751272922
1175.8429558718597,0.059169731524137716,0.04465408150451694,0.014515650019620775
1192.1819899029153,0.009403282635590093,0.0005129830923962719,0.008890299543193822
1197.819442079631,0.106507017750501,0.07287725947349827,0.033629758277002736
1221.429603372418,0.013076136221607707,0.002553335353507576,0.01052280086810013
1235.8627271897126,0.051197138279602095,0.022673528004890944,0.028523610274711148
1243.75294094711,0.02282446942150109,0.009289553498975605,0.013534915922525486
1265.6994580155101,0.027876356348925088,0.004164254335524567,0.02371210201340052
1272.6685585567127,0.01131533971852613,1.525721811022138e-07,0.011315187146345027
1283.4975534803418,0.11981424085188908,0.055891511645009634,0.06392272920687944
1284.8696313609792,0.11089511490724657,0.061263471839708254,0.04963164306753831
1290.0231592929774,0.09571833166552215,0.01385431074582244,0.08186402091969971
1292.877525383968,0.002935947590738173,0.0020078051222452895,0.0009281424684928838
1303.5968186294854,0.04417492901011151,0.02155941530484736,0.02261551370526415
1312.99835140468,0.06725685966137905,0.0033400258040553244,0.06391683385732373
1316.049970066702,0.013304522998915196,0.0034728156525998706,0.009831707346315326
1327.491270800551,0.21444869637082556,0.12825962010714376,0.0861890762636818
1331.9140820832058,0.06685686038278893,0.01010714783096922,0.05674971255181971
1335.8721465810509,0.011538721049486906,0.004521143671763231,0.007017577377723674
1337.5630203251203,0.017311589989119715,0.00015546030289841106,0.017156129686221305
1340.0981793596754,0.01433742520875747,3.86513933605596e-06,0.014333560069421415
1341.0337495558126,0.06034305086961998,0.027663469211013435,0.03267958165860655
1349.8189981933606,0.031153031019083108,0.007521833518822084,0.023631197500261023
1370.1560337612168,0.003347881956487612,0.0005065690763681361,0.002841312880119476
1375.1619042947111,0.00804097984232188,0.0020448831631676603,0.00599609667915422
1376.434698726172,0.0008655612433692215,1.535006287019004e-05,0.0008502111804990314
1387.238343349924,0.0014731893502980137,5.953367996910809e-05,0.0014136556703289057
1387.695842198394,0.007167710890253851,0.0001812441845677737,0.0069864667056860775
1397.0212078977654,0.0038969082503672167,4.352014697939075e-08,0.0038968647302202375
1399.4286363536494,0.013568603347467355,0.0001338905157130956,0.01343471283175426
1404.9961938625959,0.013172042739798993,2.5015906461165176e-05,0.013147026833337828
1410.4206890856403,0.006913100092731712,4.3458078264357145e-07,0.006912665511949068
1415.6951826152488,0.0317695935657941,0.0025591223272126095,0.02921047123858149
1417.5290560477138,0.010452222378526622,0.004878773742509101,0.005573448636017521
1429.1293033786978,0.005893842449724593,0.0007432278087880891,0.005150614640936504
1442.9012555627364,0.021565761247002067,0.003898922724248174,0.017666838522753893
1465.680036141458,0.005608998062378159,0.0031615743175394963,0.002447423744838662
1470.9087540786918,0.023078080353350856,0.0006537279755063944,0.022424352377844462
1479.5613352339665,0.03572957097179668,0.001384692602364884,0.03434487836943179
1483.6205290372293,0.04987207754372637,0.000201458729870865,0.049670618813855504
1484.5072419695048,0.03748866903107107,0.0014911782682484288,0.035997490762822645
1485.2385933782,0.04626430264063218,0.001132237915079394,0.045132064725552784
1488.2408777854646,0.007589042899688145,0.0006304194374491685,0.006958623462238977
1489.725956943705,0.02049117911980287,0.00347408078904569,0.01701709833075718
1493.8659032964285,0.0022593736400423744,0.0009452818001462746,0.0013140918398960998
1495.3971025867324,0.04199741550251729,0.00752602801638521,0.03447138748613208
1500.2956011733897,0.007164891446172789,0.0018712019567438075,0.005293689489428982
1503.8502327960837,0.02291624121821604,0.0013777654315009096,0.02153847578671513
1508.774726244851,0.00851543767716733,6.134556237782424e-05,0.008454092114789506
1509.3689505673394,0.011242445656974295,0.0007728995742564905,0.010469546082717805
1515.8009351909361,0.004296435015705166,0.0015000534576259691,0.002796381558079197
1559.7168550343501,0.003575937725607905,0.0011084217476042004,0.0024675159780037045
1648.2910635562089,0.03964380208714742,0.002545395248352662,0.037098406838794756
1682.9702699264683,0.7722492481161056,0.1607958269748928,0.6114534211412128
1815.25528650912,0.2722740278707766,0.13356417157806497,0.1387098562927116
2901.8801361711094,0.18972829957348802,0.08105651602327994,0.10867178355020808
2914.39772044642,0.25360216744671893,0.12797866172879221,0.12562350571792674
2926.4437560342644,0.7448877421558802,0.5332419965297999,0.21164574562608024
3033.96350046935,0.05713935478352311,0.049113441025563545,0.008025913757959564
3034.5206732001607,0.7226214368266588,0.5627275841705753,0.15989385265608352
3036.122917030816,1.4691572093864553,1.1745163843314101,0.2946408250550452
3038.1805828095853,0.4272660856616607,0.305898534287741,0.1213675513739197
3045.128898587313,0.14256762150766447,0.037653461060469164,0.10491416044719531
3048.5586035721144,0.24329137486749183,0.15545846902742516,0.08783290584006667
3055.7042462217332,0.07264325683058034,0.006878048755236872,0.06576520807534347
3059.0619145909372,0.4458222601012345,0.29890491790782536,0.14691734219340913
3063.5195753464527,0.2906573643494999,0.2525601533231683,0.038097211026331644
3063.852460951851,0.9003610901253578,0.876613662209211,0.023747427916146775
3066.4625139053496,0.6263503432714942,0.5266593886500862,0.099690954621408
3085.986927580567,0.38340721248307535,0.35220434655508565,0.03120286592798971
3092.8375303410417,0.9991480191604193,0.6377495148226879,0.36139850433773135
3095.6755498630628,0.9102411641703699,0.5247051730759742,0.38553599109439574
3098.025584964731,0.2581136714294549,0.0005069826729148693,0.25760668875654
3098.1842976865823,0.3978501536006477,0.0004673351618077647,0.39738281843883994
3101.742095579919,0.909023565191124,0.5994099522588004,0.3096136129323236
3106.8374987558827,0.29547882901318684,0.03331823345318323,0.2621605955600036
3112.707335024179,0.333896189148142,0.038083444860635245,0.29581274428750676
3114.0688797173343,0.1575474913852957,0.0006548391206047138,0.15689265226469098
3117.0563343351223,0.22446466033650564,0.15114821974172019,0.07331644059478545
3118.0518257810354,0.4336741948076508,0.25299764935010405,0.18067654545754674
3130.4313736691765,0.4422261149003819,0.29411368504178215,0.14811242985859974
3132.721118334774,0.3020039260963054,0.02572108843679534,0.27628283765951006
3140.617998659185,0.299301590577574,0.09683084621822993,0.20247074435934403
3145.214067934218,0.07934331713758298,0.0012730531913050346,0.07807026394627795
3214.6439023361804,0.08173506958834072,0.046133861129553956,0.03560120845878676
3217.5819649880486,0.335036611455766,0.034328737500796014,0.30070787395497
3231.982219726571,0.4636542508704993,0.37679084428558507,0.08686340658491423
3238.5666146810318,0.7152609337943421,0.5298859012864704,0.1853750325078717
