frequency_cm1,total_intensity,isotropic_intensity,anisotropic_intensity
1.4688336769382826,0.0,0.0,0.0
0.8559449626233611,0.0,0.0,0.0
2.09035750105271e-05,0.0,0.0,0.0
1.6519907382480224e-05,0.0,0.0,0.0
1.7824469545965322e-05,0.0,0.0,0.0
0.6461495443374827,0.0,0.0,0.0
9.722890759977819,0.00037776495279313676,3.460580551710838e-07,0.00037741889473796565
21.972718772317343,0.0013589793268212833,1.7429616647456219e-06,0.0013572363651565378
29.495957139623346,0.00177307302449477,1.510485903320809e-05,0.001757968165461562
33.38473176411161,0.00023480874320528307,8.17322786762971e-06,0.00022663551533765337
47.5274172411128,0.0018905128634601847,4.556661006736202e-06,0.0018859562024534484
57.73736597696973,0.0013762196898160584,1.0328722882355466e-05,0.0013658909669337028
64.62786586290537,0.002611373359464495,4.226703184326437e-05,0.0025691063276212303
69.68845600747241,0.000761509645293856,0.0001244932696726181,0.0006370163756212378
76.84249822640339,0.0008610249940495218,1.4767917838189263e-07,0.0008608773148711399
122.03174685828097,0.0006552871557179167,0.0001494879021290857,0.0005057992535888311
130.6160384323004,0.0005974592970250496,0.0003489352429612732,0.0002485240540637763
138.4978690081668,3.415739061180864e-05,3.4281080350818667e-07,3.381457980830045e-05
159.01411057333547,0.01211674807526934,0.010121489308910974,0.001995258766358366
168.01761357619395,0.0003020881135996503,6.558214718904449e-05,0.0002365059664106058
188.3811075506684,0.00011350115913264186,4.469824838715911e-05,6.880291074548276e-05
195.47789452251777,0.0021316986646351317,0.00048091571804937663,0.001650782946585755
223.52677834745617,0.00036314535312139773,4.3973017458272364e-05,0.0003191723356631254
224.27849790274593,9.07244019175412e-05,4.6721061490799617e-05,4.4003340426741584e-05
249.50346877659453,0.00048266264204811744,9.503952138970916e-06,0.0004731586899091465
252.06078472549157,0.000322181943404518,0.00010534088407878727,0.00021684105932573075
272.53611382952244,0.00366814033852952,0.0004897985086590939,0.003178341829870426
282.51390448016895,0.002001878042370009,0.00021794381944137674,0.0017839342229286322
328.8330395372686,0.0037691422824921313,0.0007066966584006058,0.0030624456240915254
359.4891679281111,0.0019018347049703209,1.20987836476328e-06,0.0019006248266055575
367.5719169143797,0.004639832333061348,0.0030229122794793555,0.0016169200535819921
414.49821025172673,0.00244056032386815,0.0006051666607552242,0.0018353936631129255
422.8512261220069,0.015711573868840187,0.012193006129101895,0.00351856773973829
432.48125691325674,0.00204033610151193,0.00016288584914163614,0.001877450252370294
441.8240801773912,0.0009190276699514158,4.315210686183031e-05,0.0008758755630895855
531.1169483794049,0.0005666146671207817,5.5536291766896035e-05,0.0005110783753538857
548.9896037131473,0.007178773476748701,0.002223573924120418,0.004955199552628283
558.8209539508613,0.004348751113754077,0.0008500322745401114,0.0034987188392139657
587.1837178552428,0.001194684075496489,6.193846423468874e-07,0.001194064690854142
658.5000465558757,0.004114717321466746,0.00031527504709695953,0.003799442274369786
719.6475775683198,0.010410081055209474,0.005581453225600852,0.004828627829608622
740.1695836993466,0.00016684819145884624,3.7479810801906685e-05,0.00012936838065693955
811.605165870074,0.0024689612106312867,0.00011223318870573216,0.0023567280219255545
848.1715116695987,0.04140618179067149,0.03564861243421194,0.005757569356459547
852.6366797999383,0.05297613280317172,0.04510062959680311,0.007875503206368607
871.4099297710881,0.040034989030232476,0.030420677907087783,0.009614311123144691
917.8577183990382,0.0027979650623171305,2.8906832451664473e-05,0.002769058229865466
925.8074016039601,0.00030666069201088246,1.3386786960346273e-05,0.0002932739050505362
935.0417087988724,0.0010182349262425007,8.257278535400693e-06,0.0010099776477071
935.1441928022699,0.0026575997174632573,0.00013317000179013266,0.0025244297156731244
937.8948495519135,0.004676808779374638,0.002589975554755328,0.00208683322461931
959.0236642932321,0.05454468021667959,0.04145593744080273,0.013088742775876853
967.8047415360102,0.007619976179464926,1.7089790113430972e-05,0.007602886389351495
973.8889351786738,0.008501439825835948,0.0026335439984493123,0.005867895827386635
989.8040440043402,0.025752826547285314,0.0017824349858654258,0.023970391561419887
990.4064600904943,0.015693475476531757,0.0013893122245898781,0.014304163251941879
1033.1392957286068,0.0053524566457960505,0.0003687435033932717,0.004983713142402779
1071.2498055276365,0.028427620248208135,0.013225483130239241,0.015202137117968893
1082.2624086150797,0.01681603874816759,0.0038446702024392734,0.012971368545728314
1104.4318889347605,0.0027679919807178143,0.00014783542210289753,0.0026201565586149167
1104.8322057433581,0.007972891217476616,0.00041526482235958704,0.007557626395117029
1119.9129462544872,0.10300914048121056,0.06429914344969341,0.038709997031517146
1163.4016244886823,0.01905809918504353,0.002404394786173847,0.016653704398869682
1165.865436488861,0.031898899080098776,0.008759114568009149,0.023139784512089628
1170.0584017167937,0.00044346949166388906,2.7760319368243042e-08,0.00044344173134452084
1174.9766428084429,0.0010636210992061744,0.0005750109840366359,0.0004886101151695385
1188.4659772691157,0.014382460782586655,0.01100335405768199,0.0033791067249046656
1200.8473816055912,0.004086341841564298,0.0022040318750976592,0.0018823099664666385
1207.3325717259033,0.012546839489229775,0.0015245135802281794,0.011022325909001596
1212.4349862987747,0.013219367567780483,0.0006204171372772555,0.012598950430503228
1227.8400973918638,0.022032377240998845,0.005389935903684228,0.016642441337314618
1271.2544238203336,0.013394844219342419,0.0005437063700201276,0.012851137849322292
1281.7289700134024,0.01545394897668534,0.0011878056088878053,0.014266143367797536
1288.7467424082054,0.006686437261988138,0.0016248560141303965,0.005061581247857741
1289.7419093699007,0.025807923779987862,0.002655224387357123,0.02315269939263074
1327.8078912372064,0.005623715425087935,1.5285847494454223e-05,0.005608429577593481
1331.722499262767,0.024742593478491826,0.0016746141654971833,0.023067979312994643
1333.1966772951885,0.025355070664094873,0.00014521837452061763,0.025209852289574255
1336.7796561665323,0.020913274681598367,0.0001126950960514736,0.020800579585546892
1362.4425541590358,0.004348190225046598,0.0011521360792897297,0.003196054145756868
1375.548175506492,0.026541741551162956,0.0005756336520970691,0.025966107899065886
1378.7170557388679,0.022056565961201126,3.5983235624746207e-05,0.02202058272557638
1405.83236666411,0.003216715768946797,0.0001560627212178954,0.0030606530477289015
1406.0734575889742,0.0033447160811917683,2.9762544107112883e-07,0.003344418455750697
1408.308427893409,0.004679513459243224,0.0004329001696755085,0.004246613289567715
1414.8804220397888,0.006759131863789304,0.0003820430640625813,0.006377088799726723
1419.028238659605,0.0014999266974989101,3.438009655614523e-06,0.0014964886878432956
1426.532862526696,0.01348531995549843,0.01194868479649032,0.00153663515900811
1427.6517837717274,0.002558580499748483,0.0006483890581214887,0.0019101914416269942
1439.2292578925635,0.009321125141556908,0.005111421513919072,0.004209703627637835
1456.080052375966,0.0056043192831819345,0.00019522756238736085,0.005409091720794574
1460.660674751109,0.024033966752678364,0.0019497692849266405,0.022084197467751723
1482.5069215307235,0.015822887058022966,0.00015647832338629505,0.01566640873463667
1482.7107545549923,0.017975328706251546,0.0002150138999023903,0.017760314806349157
1486.5017056037884,0.010697894108129926,0.00028345763752922573,0.0104144364706007
1486.8581948950336,0.04482854087054682,0.0015303094682547896,0.04329823140229203
1487.1502514637707,0.03253832681371174,0.0014658036157071052,0.031072523198004635
1499.094869327432,0.03598859198128936,0.001558012573257561,0.0344305794080318
1499.8107935342446,0.031853569545397996,0.00044931834530183404,0.03140425120009616
1502.4753616970947,0.0011986665146028355,0.0001054054120413157,0.00109326110256152
1504.2491281626496,0.011908658836278002,0.0009477266843801035,0.010960932151897898
1507.2190101149479,0.009580786541088977,0.0005762208342301383,0.009004565706858838
1509.4795797542433,0.004473187435455608,0.0008064320698615084,0.0036667553655941
1510.8089660935314,0.005268743926011146,0.001970954090127808,0.003297789835883337
1811.8381788987613,0.020239187539333583,0.013763033128954195,0.006476154410379388
1831.2878338575108,0.06380735566416582,0.03022394855555733,0.03358340710860849
3042.9187354001238,0.03217337133594031,0.010522292125934623,0.021651079210005683
3048.6976100520847,0.13618584796469785,0.10955766534071577,0.026628182623982068
3049.150210702751,0.16220138266052048,0.12564902472363126,0.0365523579368892
3051.5020872165655,1.4432454307065201,1.3768546326232836,0.06639079808323661
3052.1356223417906,1.2770535011300872,1.2436787193033911,0.033374781826695954
3054.2216185876027,0.010028776192520935,0.00010925212475370323,0.009919524067767232
3056.1631348839583,0.9942537428278304,0.8278084952673604,0.16644524756047002
3056.2924536146575,1.5269600526736393,1.4527212770526188,0.07423877562102058
3064.6899896647437,0.11859251102373608,0.11816598428839742,0.0004265267353386604
3066.0430595348053,0.2824789071094085,0.004655481729987998,0.2778234253794205
3069.885302301247,0.7292311221145252,0.7136281162915401,0.015603005822985109
3071.1152723360246,0.0379741933985152,0.03727336420542191,0.0007008291930932882
3080.8091859007277,0.5265022443792695,0.027329201764643783,0.4991730426146257
3089.5545575963497,0.01750683918014511,0.0085628362191387,0.008944002961006413
3097.2457717992806,0.0612414101676426,0.0016339614445722353,0.05960744872307036
3104.1588589756693,0.06024875220789573,0.001511999801913756,0.05873675240598197
3112.667519189384,0.12922791611415393,0.0033751553977316435,0.1258527607164223
3112.6905799125147,0.10729233367822934,0.013663361497164624,0.09362897218106471
3115.009051214139,0.12514094619494617,0.027861046486795597,0.09727989970815057
3116.1935242272407,0.02290423966393132,0.0015525337265145632,0.021351705937416757
3118.6140701481245,0.46106246959097974,0.19819323227683358,0.2628692373141462
3123.3452871225804,0.45674703830831026,0.1435629842959394,0.31318405401237087
3128.0183493099453,0.3635284991752712,0.011105892698587264,0.35242260647668394
3129.851178905343,0.41922424026400057,0.05860977545731483,0.36061446480668574
3143.114515489957,0.2363500858212144,0.030028219679200253,0.20632186614201414
3152.3945977481003,0.20213968122001447,0.02703208896441591,0.17510759225559855
