frequency_cm1,total_intensity,isotropic_intensity,anisotropic_intensity
1.1701807816422891,0.0,0.0,0.0
0.7662124110466332,0.0,0.0,0.0
3.159878084758976e-05,0.0,0.0,0.0
1.9225905895396213e-05,0.0,0.0,0.0
1.9299885794023305e-05,0.0,0.0,0.0
0.5501893191529442,0.0,0.0,0.0
1.859415106436387,0.0,0.0,0.0
7.567938210384632,0.0013144558572870915,3.96070044748533e-06,0.0013104951568396063
10.920720760431768,0.0028814385534094806,5.81057260205549e-06,0.0028756279808074253
22.312072954828537,0.0005507345560846946,4.828828286032206e-07,0.0005502516732560914
28.121360097648182,0.0019319037822805045,2.9462172940185823e-05,0.0019024416093403186
31.10840634602899,0.0008658326379424054,2.058183378079295e-06,0.0008637744545643261
34.02462353374182,0.0005392330921366844,9.943900128132568e-05,0.0004397940908553587
44.728079556377644,0.001252961472109684,9.186798946632313e-05,0.0011610934826433608
50.530645444572116,0.0011548461579554937,3.9009762268274176e-05,0.0011158363956872196
60.13634859399033,0.0006350151017430597,0.00011547682055805637,0.0005195382811850033
64.3480625720033,0.0027099616782348024,1.7778179796149226e-05,0.002692183498438653
74.01143476687689,0.0013205139647614755,5.736996148227348e-05,0.0012631440032792021
90.78535099731668,0.00036596516291803756,6.150543972499345e-06,0.00035981461894553824
93.00992556915148,0.0001447897701805221,9.224042419295863e-05,5.254934598756348e-05
100.70910138241499,0.0009524822420876968,2.2752063063853163e-05,0.0009297301790238436
103.6963226358223,0.001797714055102825,3.237997977488744e-05,0.0017653340753279376
112.37036884307676,0.0008466035572825975,2.691313822929105e-05,0.0008196904190533065
127.13581240765208,0.0014846078234871476,0.0008832272218279949,0.0006013806016591526
143.30318520336235,0.0005309982641736296,2.894782942346163e-06,0.0005281034812312834
150.86855338925537,0.0005800616099524648,0.0002955314229660998,0.00028453018698636505
152.58098297123004,0.0008678350947620309,0.00044782943650806305,0.0004200056582539678
158.1209151183604,0.001456997935776336,0.0006211575245712335,0.0008358404112051026
161.173696097261,0.0003275863055725913,9.573414481686635e-05,0.00023185216075572498
170.4178733997523,0.01501343986254733,0.011820586035558283,0.003192853826989047
194.2800702769668,0.004046357865757418,0.0024092482181197975,0.0016371096476376205
208.0640649664995,0.0023896498937395097,0.0014427454732802915,0.0009469044204592183
225.26393440252534,0.009198208074830159,0.004511229753086362,0.004686978321743797
244.61083160053374,0.0004939521941695253,6.0291077291715796e-05,0.0004336611168778095
245.81737246031375,2.1145806495112462e-05,4.2693387461177515e-07,2.0718872620500686e-05
253.6395995480816,0.0013286617248575096,0.0003513282695826763,0.0009773334552748334
292.05136081343005,0.0029316929137531257,0.00064098168202899,0.0022907112317241355
308.7231833588284,0.005442991631495366,0.004696235925313024,0.0007467557061823414
333.65867705587107,0.0018735917645106037,0.0011719515224070125,0.0007016402421035911
354.46215172860514,0.0025840077944487513,0.0001599885142123023,0.002424019280236449
362.16519201014654,0.0014457809261258748,2.3240740172224602e-05,0.0014225401859536502
416.0960771898973,0.0024255366615693304,0.002026971929290295,0.0003985647322790353
433.87010384303306,0.0022648653314420787,0.00022644769412136426,0.0020384176373207143
452.64575186132004,0.0017349910897248358,0.0005048368944254331,0.0012301541952994027
461.00241714450107,0.0008550368941200555,0.00017757526762383587,0.0006774616264962197
478.0198837026228,0.001991220380874282,0.0002496829928830532,0.0017415373879912286
532.7218186941426,0.0051553995896805515,4.245371193774419e-05,0.005112945877742807
559.0571171607099,0.004489030635396872,2.9565610675684258e-05,0.004459465024721188
589.1723636770209,0.004381105344532887,7.537284806142525e-08,0.004381029971684826
598.4636965873858,0.0006763167167919682,2.1325162796903565e-05,0.0006549915539950646
706.9729361976465,0.002873094326885572,3.5685323870695604e-05,0.0028374090030148765
728.3664371273494,0.00029766992946000633,0.00016642177473360015,0.0001312481547264062
729.7374870714933,0.0006767955239485987,0.00019230333612217968,0.000484492187826419
732.7479798401939,0.0007459030425798086,3.625979366356665e-06,0.000742277063213452
737.4656525537395,0.0010199065297230216,0.00036477975728599755,0.0006551267724370241
743.9247324033869,0.000848194258860855,1.9482592290773626e-07,0.0008479994329379472
745.6673733221307,0.008833086645488396,0.004854651274791021,0.003978435370697375
756.0901086508891,0.004778264655815649,0.0030251895669420616,0.0017530750888735877
772.3243549076791,0.0018812263270199026,0.0017267464139379388,0.00015447991308196383
800.9703867505764,0.0005390317240729879,0.00035644557194884413,0.0001825861521241438
807.2570336840794,0.004933662384651752,0.0013121584793393344,0.003621503905312418
834.2634857960951,0.00042630561895467265,5.7164141214784254e-05,0.0003691414777398884
869.8608717681639,0.00021795000625099501,2.7842893472857417e-06,0.00021516571690370927
907.6090615177632,0.028239708011199394,0.01732284603027808,0.010916861980921313
907.9448706959877,0.035054853447587776,0.02366699581567929,0.011387857631908487
912.6825339143813,0.0008546843785842503,3.016027451393022e-06,0.0008516683511328573
920.9855299107461,0.05833071364742898,0.04266691320734189,0.015663800440087094
944.2521040159836,0.003145282450864548,0.0023890670845157945,0.0007562153663487534
960.289384346618,0.009606260014442168,0.008663677266183856,0.000942582748258312
964.3006478700454,0.007260845868325813,0.005756021941437175,0.0015048239268886383
1000.1328287426016,0.001016849324954964,0.00031969362096011847,0.0006971557039948456
1004.0094624642629,0.004086728968282232,0.0007500748528535441,0.0033366541154286875
1015.1829421132348,0.004862356113933208,0.0026005387004643895,0.0022618174134688184
1017.8051174927746,0.003608930322552181,0.0013458387699005524,0.0022630915526516285
1025.1536855561092,0.008436999087187046,6.999871757547911e-06,0.008429999215429498
1031.414087034048,0.005248262996542856,0.00017300845738303614,0.00507525453915982
1032.9081225083173,0.0021770415902101583,1.4974489690867977e-06,0.0021755441412410715
1043.1891441355006,0.003907186634281355,0.002826651166906691,0.0010805354673746634
1055.0829456919896,0.0045676307596553885,0.0004687769049856447,0.004098853854669744
1061.2392568941389,0.017935522053025503,0.001363405301244452,0.016572116751781052
1072.2197529224075,0.014849827456526651,0.0014000506024648746,0.013449776854061776
1076.450381188681,0.016548036758777345,0.007747624831403074,0.00880041192737427
1078.3903795618976,0.04742489697358944,0.02312954629135102,0.02429535068223842
1084.0670294369193,0.03246049802831382,0.0011569135440200567,0.03130358448429377
1087.6412811713965,0.015638876481549477,0.010900018815752656,0.004738857665796821
1089.1565635920272,0.02207402259730361,0.002058675815240306,0.020015346782063306
1089.6780593214735,0.04690377008478061,3.4055692657517624e-05,0.04686971439212309
1092.1326933693738,0.05030748400916995,0.008061153554132457,0.04224633045503749
1109.7979700490682,0.007606311003544967,0.004192185442288326,0.003414125561256642
1127.637959674249,0.1877974012480546,0.10603993402826956,0.08175746721978507
1142.7882199749372,0.01747251877900029,0.01220197173328597,0.005270547045714319
1144.7136010806896,0.042654123902832915,0.029640647548125995,0.01301347635470692
1150.3164657659665,0.14810866086459062,0.08665041901100402,0.061458241853586615
1185.4109702834487,0.0024798116734610575,0.00011685475854896072,0.002362956914912097
1193.5184859768415,0.00318228478270764,0.00028594874364175896,0.002896336039065881
1205.2516432398854,0.004698803332199359,0.0017410487452389025,0.0029577545869604563
1213.7019977387954,0.005182458921981671,2.017658294001361e-05,0.005162282339041657
1232.744027141199,0.0033214860056116472,0.0013018371344252488,0.0020196488711863984
1234.7117467382227,0.002542112437011296,4.261214257712125e-05,0.002499500294434175
1238.1169275777813,0.0036123183865144595,0.00017282581370819567,0.003439492572806264
1253.2997748635166,0.0028305550121619236,8.77537318344061e-05,0.0027428012803275177
1268.745177690499,0.0022932139039380656,0.0006385948915823668,0.001654619012355699
1275.3367457738348,0.013043885429329488,0.0025982368432803885,0.0104456485860491
1276.01906941979,0.009743058033988719,0.0002500780383554798,0.00949297999563324
1282.0613757226527,0.002608752151042706,2.0172709476178757e-05,0.002588579441566527
1288.3469985864556,0.03914190362249398,0.005960797242904564,0.03318110637958942
1296.9464351017145,0.008324998894478393,0.0018038991390317196,0.006521099755446673
1298.6450066356838,0.08794353934365418,0.011358872639794558,0.07658466670385962
1313.2169308881319,0.012567714323705577,0.0044913682798643755,0.008076346043841201
1320.4880944790302,0.027781612424896768,0.00562017430865457,0.0221614381162422
1320.5836127563548,0.004508471959926356,9.246237262151779e-06,0.0044992257226642044
1325.0619760793345,0.06189170414783648,0.0009373745432045751,0.0609543296046319
1326.9107246936214,0.07068900151098334,3.637564739867916e-07,0.07068863775450936
1328.251320917447,0.05418642942823725,5.500616256617334e-05,0.05413142326567108
1331.0842119266715,0.027725484988156007,0.0011613821182501493,0.02656410286990586
1334.1566975262588,0.0008202750243870253,0.0001496403664739052,0.0006706346579131201
1335.505942377943,0.0015384730720971733,0.00010025602747333517,0.0014382170446238381
1335.9476040206591,0.004996595892614797,0.000854785015928804,0.004141810876685993
1336.3753427626846,0.0016627310167479233,0.0006115750608399631,0.0010511559559079602
1337.7882369141564,0.01958857498867332,5.763062479969775e-06,0.01958281192619335
1360.7527811207701,0.009480316100917699,9.517829066243453e-05,0.009385137810255264
1368.3737407695867,0.015482919643120936,0.002550133520517734,0.012932786122603202
1388.968392026357,0.0020789381177081976,0.00048643651268338823,0.0015925016050248094
1392.4396598122412,0.01393205227376603,0.004087299236824091,0.009844753036941939
1399.898946143578,0.011794265440111036,0.0034177264727682814,0.008376538967342756
1411.270640644339,0.004689806614744198,0.0024652430187933915,0.0022245635959508066
1414.1730478753007,0.002093432165693,4.445293319456839e-05,0.0020489792324984313
1414.5401245085989,0.00025881546578738557,1.6535431355904148e-05,0.00024228003443148142
1417.0207787540703,0.006674247096958147,0.0022811250625225767,0.00439312203443557
1419.948640365809,0.008525144242808397,5.6868320835997165e-05,0.0084682759219724
1423.0913326319394,0.003792691012810502,0.0010595334523852908,0.0027331575604252114
1435.5950273512838,0.006228907681054942,0.0018708744930559106,0.004358033187999032
1441.7022297169497,0.011369950732187595,2.301856764635432e-07,0.011369720546511131
1461.439572010289,0.014571194822834917,4.273987867183321e-05,0.014528454944163084
1475.892584756447,0.011621397065715147,1.5440447606574717e-05,0.011605956618108572
1480.749057624676,0.004468329645812972,0.0009496020202227148,0.003518727625590257
1481.0474269362144,0.0035891769957424407,1.7419280570410503e-05,0.00357175771517203
1481.6446017016424,0.07600000816915145,0.008554050035604397,0.06744595813354705
1482.7141019051508,0.023470952394746128,0.000346813979598524,0.023124138415147603
1484.3265882827336,0.16184103813886072,0.013803881329931903,0.14803715680892882
1485.4575223838804,0.011740125091308822,9.242243419683426e-06,0.011730882847889139
1486.2567690430774,0.02182701982040308,0.003937859147685561,0.01788916067271752
1487.9760497845689,0.07581787107326718,0.007439446751982984,0.0683784243212842
1488.5401663088958,0.016015841821462835,0.0015212886536788033,0.014494553167784032
1492.92150623153,0.02387906388612019,0.002210012193035641,0.02166905169308455
1493.7774858810442,0.027776110849966115,4.4551458207002683e-07,0.027775665335384045
1495.2227748257035,0.022923431624290214,1.947891469884022e-05,0.022903952709591373
1496.2320783628732,0.00303628600230589,2.1965064869415812e-05,0.003014320937436474
1496.557724749257,0.005889992522871827,5.2151398763636846e-05,0.00583784112410819
1499.749428926209,0.0077126227426575055,0.0026869377641067066,0.005025684978550799
1503.1238521617713,0.01827893109237594,0.0022825023303305585,0.015996428762045378
1505.2524483930279,0.007214272235365945,1.1468874613146547e-05,0.007202803360752799
1506.499235432023,0.008833677345804857,0.0016582300569956405,0.007175447288809216
1506.5943923135733,0.0017955749016926403,1.0315016162702899e-05,0.0017852598855299375
1757.5578320213615,0.31643875905993224,0.21981258113136762,0.09662617792856465
1812.2364508608955,0.024663654196442113,0.01931350423993333,0.005350149956508784
3022.333155633268,0.26897824810595156,0.2656732760380289,0.003304972067922608
3022.379571335593,0.13894900140862396,0.12856255137422642,0.010386450034397539
3023.800318540161,0.45972565085271083,0.4525223274288309,0.007203323423879932
3025.262626967295,0.9964690157318266,0.9751338620606025,0.02133515367122412
3025.6720734055075,1.6164099498145,1.5561020391076315,0.060307910706868445
3030.5596216756676,0.24847463681924062,0.22837179647775402,0.020102840341486607
3030.9395652062694,0.22832301200889202,0.21201684915689314,0.01630616285199888
3036.353825456963,0.3999384426434848,0.3150013970849139,0.08493704555857091
3037.122244161819,0.8499480626264108,0.7906612097340263,0.05928685289238443
3039.020440504877,0.7759629760953461,0.6987176178640796,0.0772453582312666
3041.0444899243143,0.20041491400044906,0.16357903342975771,0.036835880570691336
3042.286226895647,0.39515767630057624,0.02248493627791195,0.3726727400226643
3043.5840322905483,1.063032133024178,0.38473196324245046,0.6783001697817277
3044.508840154543,0.5319428343158595,0.0527936502471307,0.47914918406872886
3046.6847705320347,0.5335504614544677,0.0008831081804175136,0.5326673532740502
3049.670867575938,0.03621140981093014,0.03374822202645783,0.002463187784472314
3049.9882087282863,0.893199418393423,0.8847234033289769,0.008476015064446112
3052.2848677295715,0.46080916361204743,0.44764677317330054,0.013162390438746882
3054.134706133114,0.054125729077428686,0.04536704598595201,0.008758683091476677
3057.3512376727926,0.8826029181836457,0.7825316680454782,0.10007125013816746
3058.862454847546,0.9019029433010622,0.8810392280496803,0.020863715251381924
3059.100768676371,0.1760156668206509,0.020405248496245164,0.15561041832440572
3067.461415146112,0.04226360489990089,0.03806234135159807,0.004201263548302823
3069.2888477092333,0.05035768708735901,0.0006496662061220191,0.049708020881236985
3070.687693958145,0.07114452203083284,0.019698900010137098,0.05144562202069574
3072.80359732297,0.422034383265194,0.03985705890931686,0.38217732435587715
3079.370367478822,0.13438833719756724,0.005534166163152076,0.12885417103441515
3084.168395188981,0.008509290654943859,0.0029145215329170982,0.00559476912202676
3087.4933253072386,0.010925291519335547,0.005807770821551012,0.0051175206977845345
3091.7486741753996,0.2644099436839078,0.019289386061396713,0.2451205576225111
3093.2257406045646,0.484452830392497,0.4368081585133287,0.047644671879168266
3100.603806067656,0.05847049056913672,7.998371221882092e-05,0.05839050685691789
3105.2487894246988,0.053412559007484824,0.010668531270224718,0.042744027737260104
3111.5643811206173,0.004827513560898181,0.002208045706636762,0.002619467854261418
3113.0323595343466,0.13467842408407713,0.00026457841201817773,0.13441384567205894
3113.9044703707727,0.2301958709367326,0.14186334263542522,0.08833252830130739
3118.4560100423732,0.18959828514205931,0.00520915105768925,0.18438913408437008
3121.0230415480664,0.41348874714593886,0.06279620005533051,0.3506925470906083
3125.3737178278584,0.3960925929391071,0.06154924720255513,0.334543345736552
3141.091997473669,0.25129238921055996,5.929260214859495e-05,0.25123309660841137
3146.1182695256102,0.15477009117436108,0.014187030961920605,0.14058306021244046
3163.474064627436,0.8137332819652032,0.5992148980709372,0.21451838389426603
