frequency_cm1,total_intensity,isotropic_intensity,anisotropic_intensity
0.05665863599426962,0.0,0.0,0.0
1.6609360793342278e-05,0.0,0.0,0.0
1.3773903609065392e-05,0.0,0.0,0.0
2.60616410138494e-05,0.0,0.0,0.0
0.22439604303040672,0.0,0.0,0.0
2.8627264896861897,0.0,0.0,0.0
8.36456045293596,0.0004927600077274237,1.656217392688093e-07,0.0004925943859881549
13.329386844584679,0.0002478075280420558,1.9603213086761946e-07,0.00024761149591118816
18.830391489514042,0.002418232301140196,2.2993468667126882e-07,0.0024180023664535245
23.27250419206972,0.00018200142091103714,6.192027398144316e-06,0.00017580939351289281
36.9915128600807,0.002306022928764482,2.924733674309955e-06,0.0023030981950901723
37.98525374261588,0.0019500235492999319,2.932286854631518e-06,0.0019470912624453003
46.313436150217996,0.0016906463115331511,4.7640512657848286e-05,0.0016430057988753028
48.622985933225145,0.0002483590354871844,7.230224069135234e-06,0.00024112881141804917
68.58249505925835,0.00048615838254850133,0.00020461808952928793,0.00028154029301921343
76.82862875767333,0.00032033670737537903,4.882029853599505e-05,0.00027151640883938397
79.50441067912126,0.00010730094939852553,3.924953851176494e-05,6.805141088676059e-05
95.68481700649392,0.006612715787446646,0.0036520682508078594,0.002960647536638787
105.85851397625495,0.0034441954173951824,0.0009901136092669008,0.0024540818081282816
109.76945105054104,0.0006963646458824349,0.00012019171815747975,0.0005761729277249551
119.1627307910635,0.00037602915843239313,0.00017578740017226618,0.00020024175826012698
135.49641755152263,0.00039983797835473317,2.5832796836327108e-05,0.00037400518151840605
137.05693080009732,0.00019117673548162906,1.2665634737272094e-06,0.00018991017200790185
158.13578685537013,0.0017711331226851574,0.001367084806874811,0.00040404831581034636
159.70430538592606,7.184935045116571e-05,1.1310539912373738e-05,6.053881053879198e-05
162.58790720213858,0.006800539374097993,0.0050044110627397225,0.0017961283113582698
172.20080523960834,0.0012754251688508285,0.00048250884791698357,0.0007929163209338449
175.34382202721432,3.6745648956015785e-05,1.102840460867984e-05,2.571724434733595e-05
176.09057497349409,8.185623286402006e-05,1.9451215231184165e-06,7.991111134090164e-05
228.42861801217143,0.001760583915815851,0.00038210537793210335,0.0013784785378837476
231.10174657412625,0.0017055120307063617,0.000540194639320498,0.0011653173913858635
246.08906130810192,2.2605444255481514e-05,1.0743452671834162e-08,2.259470080280968e-05
284.06756685498186,0.0032498420527832597,0.0010215090484826483,0.0022283330043006114
296.43016161060507,0.0005280693773143924,2.1043338390637965e-07,0.000527858943930486
338.87184278414173,0.009473079794435086,0.006780691418964061,0.002692388375471025
365.4205458588401,0.006259728499553084,0.005005457575257262,0.0012542709242958224
412.83405431206245,0.0005163191119096838,9.703046177194205e-05,0.00041928865013774174
432.1131116643541,0.009736986030632826,0.0059967290294150955,0.003740257001217731
474.2167119026688,0.0007362920709481476,0.00020981511167040046,0.0005264769592777471
483.4628279316883,0.023789250157541218,0.017880306776449466,0.005908943381091753
516.8789414573753,0.0014799779296117896,0.0009157268439599253,0.0005642510856518643
518.7448435826269,0.0033866998868157614,0.0017626718314523323,0.001624028055363429
579.859037380979,0.005417649111202974,0.00015716167011166232,0.005260487441091311
628.2093344238234,0.007749776572171095,0.0038085310039205687,0.003941245568250526
649.64989364004,0.059949510832476335,0.03743008590249993,0.022519424929976405
727.9084530765119,5.858762214544788e-05,5.632652163241841e-06,5.2954969982206035e-05
728.4959588475746,5.214861865649391e-05,1.386421419332384e-05,3.828440446317007e-05
730.1368267398617,0.00012157467944570862,6.5914987352709e-05,5.5659692092999627e-05
733.4668796747055,0.0003447537107134029,0.00023017698966184034,0.00011457672105156253
740.2770804020072,0.0006690048282043122,0.00036653686274358414,0.000302467965460728
752.4468269331367,0.00045545640189456507,0.0002894474313700054,0.0001660089705245597
770.219975658881,0.0001208736395194629,2.1375976879323267e-05,9.949766264013964e-05
788.6826178262863,0.007461467246790336,0.005441606656610882,0.0020198605901794544
806.9360050730778,0.012102562059261048,0.009505038001266612,0.002597524057994435
837.0570690533917,0.008003573860548445,0.005567724837286557,0.0024358490232618867
874.0641600414139,0.0047608586874554396,0.0040303500816939635,0.0007305086057614761
906.9093631082111,0.013883507352451707,0.004439055698875983,0.009444451653575724
908.3184546749072,0.03375037449778801,0.02087912834198882,0.012871246155799194
915.6782674780741,0.005331579161556727,0.0005015620005308131,0.004830017161025914
955.8162405847534,0.002221705122907271,0.0014917193219355328,0.0007299858009717385
994.3452804376961,0.0030618605048494812,0.001312481359405883,0.0017493791454435983
1003.2547864528615,0.0008383857524223258,0.0005274318758728086,0.0003109538765495172
1008.8592170443162,0.0004837318024194056,0.00012036698968098027,0.0003633648127384253
1022.0438512646359,0.001240139744197227,6.996566567174066e-05,0.0011701740785254864
1028.59811930315,0.003623050120177506,0.0022405325903945158,0.00138251752978299
1037.0240072080596,0.003378838690876558,0.0016648969042527915,0.0017139417866237666
1050.2772511231308,0.0034197519731901734,2.641258640061487e-05,0.0033933393867895587
1054.3765546210136,0.003176922221794925,0.00011384686859044288,0.003063075353204482
1062.2171637803403,0.002351159079758181,0.000783665546220483,0.0015674935335376983
1070.6840403162375,0.008204978233730103,0.0034386027295650367,0.004766375504165065
1080.504864595581,0.002591339359647512,0.0005678352145334594,0.0020235041451140525
1086.5386660229133,0.04495561610209127,0.001497740047274271,0.043457876054817
1088.7658519230754,0.10112929691865859,0.00022133531267875577,0.10090796160597983
1089.2355701545662,0.00034442602271373774,1.07349494568567e-06,0.0003433525277680521
1091.611039322801,0.0003508084818839768,3.116022122837317e-05,0.00031964826065560367
1092.7167952965879,0.0037208365689465595,5.6328225965896114e-05,0.0036645083429806633
1094.0910281185004,0.007420145157636874,8.390813737196048e-05,0.007336237020264914
1127.345604454151,0.07281969758189019,0.03408214503186958,0.03873755255002062
1139.294929586294,0.0140507213481454,0.0021221790735268292,0.011928542274618571
1157.1723599434513,0.2739237853503936,0.15638704035185308,0.11753674499854051
1193.2722803534955,0.021808194238673424,0.004604816385783328,0.017203377852890098
1204.0749303501723,0.019470924598049683,7.45282613004682e-05,0.019396396336749215
1216.450334014901,0.006514086425814275,0.0020725523434421806,0.004441534082372094
1218.5644200801323,0.001346263438195878,0.00033061498880080313,0.0010156484493950748
1234.6396648514158,0.006955679255319237,0.0026194579187035715,0.004336221336615665
1239.0431734781134,0.0025917095561476316,0.00027711548641144295,0.0023145940697361887
1252.5736689289397,0.010234742574995645,0.003273057903657456,0.006961684671338188
1258.393568263572,0.004110082413949365,0.0005926032168415199,0.0035174791971078457
1269.221351622246,0.008198114395354882,0.0016303820734148739,0.006567732321940007
1277.1267667085629,0.003693207052684502,0.0014131113849580985,0.002280095667726404
1287.1487716041731,0.00262568536540941,0.0009407114656221384,0.001684973899787272
1296.0673941680673,0.004052040344559237,0.0009746292605030273,0.00307741108405621
1304.9241171446565,0.0020656368909419427,0.0007739642130838937,0.0012916726778580492
1314.4510125944778,0.0011715078871025483,0.0005664516553444801,0.0006050562317580682
1320.2212391244457,0.008684915288492927,0.0016048324010659513,0.007080082887426975
1324.3660618103963,0.18915335204310857,6.647062154822009e-06,0.18914670498095373
1328.0575807817356,0.001208643149238332,0.00020980490051997436,0.0009988382487183575
1329.3440030602228,0.0011888965955796091,0.00011351720160836363,0.0010753793939712454
1333.1801046463381,0.01740703215420968,7.359339614354414e-07,0.017406296220248245
1334.7428974353857,0.005539430024167428,4.210723778176796e-05,0.00549732278638566
1337.1092045853698,0.00024329343276191217,9.271941967987576e-05,0.0001505740130820364
1337.9196515753633,0.0013524347938227328,0.0002737721815360933,0.0010786626122866396
1339.3231897975604,0.001582400788892097,0.00013995883873388104,0.0014424419501582158
1343.089849166983,0.009202190917332018,0.0007925203414612611,0.008409670575870757
1357.3712682928249,0.0059282396436415394,0.001805401502574588,0.004122838141066952
1375.6586624544043,0.001625266661574259,0.00014498701065747633,0.0014802796509167826
1386.277746117201,0.005635201081762668,4.009282261166913e-06,0.005631191799501501
1392.0684559059525,0.0012530305071541817,0.00017588107113580153,0.0010771494360183802
1405.1182738445355,0.0006198213022811436,1.2035984851356933e-06,0.0006186177037960079
1412.3088918890894,0.000890481886156966,0.0007066307943878486,0.00018385109176911738
1414.8088566594624,0.0023253032074044577,7.76242532200089e-05,0.002247678954184449
1419.7475592726369,0.004366169760599481,1.0534126700377003e-05,0.004355635633899103
1420.182835655181,0.010594509724529608,3.456990990835176e-05,0.010559939814621257
1421.7083933946892,4.843415912306868e-05,5.913700494642585e-06,4.2520458628426096e-05
1422.4592748293312,0.0012722534455309959,6.938680907361238e-05,0.0012028666364573835
1474.6006142861188,0.01609662959218523,0.0004192812415834242,0.015677348350601805
1480.0214693627465,1.7638115942842352e-05,1.1186381556796776e-05,6.451734386045578e-06
1480.1245019098549,0.0003064326085572333,7.696265136205311e-05,0.0002294699571951802
1481.552838273224,0.008416209399043858,0.0001936716157248489,0.008222537783319009
1481.865452181931,0.004129264260323827,0.00019870564769252296,0.003930558612631304
1483.5334543617873,0.0020022474546430233,0.0011192626507922274,0.0008829848038507957
1484.2329694723937,0.031008643092162863,0.004670062850132285,0.02633858024203058
1485.1748776665092,0.30611508034060614,0.025426327583445665,0.2806887527571605
1487.135020059491,0.006122920463028082,2.083533423854462e-05,0.006102085128789537
1490.1536117045998,0.012916787158559642,0.0006578684953562131,0.012258918663203429
1493.516510187715,0.0016843363808839572,9.582009263958966e-05,0.0015885162882443675
1493.7373657635314,0.02678670374255819,1.5583825156015558e-06,0.02678514536004259
1496.9898453340845,0.003773911424899662,0.00023675002635880423,0.0035371613985408575
1500.3074424896677,0.0008079704159547941,0.0002622352865663496,0.0005457351293884446
1503.2536552765555,0.0011550213438199608,4.706266908779425e-05,0.0011079586747321664
1505.424343474822,0.0011509582336887195,0.0001748742413217545,0.0009760839923669651
1506.4921446662674,0.0008363582649060027,9.421392586637136e-08,0.0008362640509801363
1842.2071327707781,0.09508091772968588,0.05078962545136498,0.044291292278320904
3021.1148673852126,0.03757883189593973,0.03419465141959834,0.003384180476341391
3021.4391078707363,0.002233664620210259,0.002011978689606278,0.00022168593060398062
3022.4432373547197,0.06741169970270397,0.05957648094411075,0.007835218758593224
3023.1457179263043,0.04134287876441171,0.04015441612561295,0.0011884626387987569
3024.055851594762,0.5474280236161858,0.5220852943594564,0.0253427292567294
3024.843589707705,1.9691439338854548,1.9436632052849587,0.025480728600496032
3026.0689333974983,1.67695115340609,1.6501688213331973,0.02678233207289253
3027.264353886192,1.3099093990939157,1.3003606012113536,0.009548797882562224
3029.778023380806,0.2646942701931415,0.25474529957114195,0.009948970621999577
3033.3013229510934,0.006660067783488861,0.0024116158213393826,0.0042484519621494785
3036.606034205175,0.21377999544798254,0.20348774816322718,0.010292247284755373
3039.3672296693885,0.008756219675704264,0.006403544105930349,0.002352675569773915
3040.793301645787,1.2702751270807815,1.2039474744225502,0.0663276526582312
3040.982408912927,0.01711987152202317,0.011365588388008814,0.005754283134014357
3042.7277918108994,1.5161782634453012,8.323902384691044e-05,1.5160950244214542
3043.739113326985,0.04840560515660531,0.00028734891499893896,0.04811825624160637
3045.0194481456947,0.585233273248124,0.00021215842606282627,0.5850211148220612
3045.6656502290934,0.1451375602101057,0.0017800058061517594,0.14335755440395395
3048.255938436993,0.011024155525959424,0.0036074468604856123,0.0074167086654738125
3049.8044430461864,0.914916520929192,0.9077009620645752,0.007215558864616776
3051.863104373375,0.13569999936615773,0.0036460187305472178,0.13205398063561052
3056.1203464826517,0.0036729692861431776,0.0023714592865983386,0.0013015099995448392
3061.0219675201624,0.08856058817346757,0.0019045548513314768,0.08665603332213609
3066.699289458153,0.0069958604199151135,0.0009570096457395868,0.006038850774175527
3072.494417969399,0.07576458715572355,0.0007336259498939388,0.07503096120582961
3077.890539181483,0.011652074136664884,0.0005702703049507093,0.011081803831714174
3082.726072075394,0.05407525610153648,0.0004001204580502838,0.0536751356434862
3086.9873109424902,0.0010106657425278933,0.00014073424600616368,0.0008699314965217297
3089.829358676736,0.016492304855890823,3.649753631983035e-06,0.016488655102258838
3095.946150106023,0.09475480636920398,0.00028033042346048545,0.0944744759457435
3112.7027131591512,0.12908302700292296,9.36002507435042e-06,0.1290736669778486
3115.768946270962,0.13448688893409955,0.066221517318609,0.06826537161549057
3121.050173987617,0.41018228312159694,0.06298426771203415,0.3471980154095628
3170.9948641435913,0.18170741803441373,0.10748556467489148,0.07422185335952225
3795.48671615926,0.5290352472011819,0.30530260206352455,0.2237326451376574
