frequency_cm1,total_intensity,isotropic_intensity,anisotropic_intensity
5.752997742231363,0.0031946560068009506,1.0014872189170708e-11,0.0031946559967860784
1.5045232822834649,0.0,0.0,0.0
1.4916404648846961,0.0,0.0,0.0
8.869897434325574e-06,0.0,0.0,0.0
3.4324110660735104e-05,0.0,0.0,0.0
3.573499684781359e-05,0.0,0.0,0.0
16.181453924155054,7.848509937274379e-05,3.7561823985740555e-10,7.848472375450394e-05
24.643891893606778,0.00042852661676509384,2.808247327651334e-06,0.0004257183694374425
35.94505904368167,0.0013370229310159334,6.150292415630497e-13,0.001337022930400904
50.09518137275037,0.00017601381792269183,1.6538883513332336e-10,0.00017601365253385668
71.12557534785456,0.0011668274883966068,7.266520483020168e-05,0.0010941622835664053
75.10264592633968,0.00013830199723895034,3.328769890974135e-10,0.00013830166436196124
93.2035306137589,3.1415499535703816e-06,1.3801223876079325e-10,3.1414119413316207e-06
114.96866533719256,0.0003490609214009462,1.9227721329271424e-08,0.0003490416936796169
123.81213735563028,0.012504338073593642,0.006530561283904188,0.0059737767896894545
135.92258083690513,4.188257443338495e-05,3.236758194870035e-08,4.185020685143625e-05
149.40109477692968,5.1396556946367796e-05,5.776356277035705e-07,5.081892131866422e-05
153.6465046924271,0.007449033828379946,0.0057416871192036804,0.0017073467091762659
169.4278017922555,3.667910104415622e-06,9.291033922475731e-09,3.6586190704931463e-06
172.202554817755,4.002021004412612e-05,6.488153967755202e-10,4.001956122872935e-05
221.322393564052,0.00044035067667144506,0.0004084962787419017,3.1854397929543365e-05
246.04389679080202,2.1113071660870152e-05,6.41864976678736e-11,2.1113007474372486e-05
281.16170773893776,0.0008585225602449864,2.3000020797567976e-05,0.0008355225394474184
323.8458909017634,0.0007215157172675589,1.559282182774183e-05,0.000705922895439817
405.31120567211514,0.006415965754423372,0.004097526697775611,0.0023184390566477605
422.95198472020223,0.004358696519125438,0.003107784159546762,0.0012509123595786766
497.8371911302064,0.00020026613050127656,0.0001262936090602359,7.397252144104066e-05
502.7854011498314,0.0009095101162541185,0.00011977317657935478,0.0007897369396747638
686.2244676700258,0.14654490646135573,0.07503708761387715,0.07150781884747859
728.2382992919843,8.190824149225637e-05,3.533074022016631e-08,8.187291075203621e-05
730.0980058199251,3.99134010098692e-07,3.3225846606680896e-08,3.659081634920111e-07
733.8674548815738,0.00010228859982867774,3.5144176772444387e-10,0.00010228824838691002
742.2440989185354,2.9212671637358018e-05,4.862760341788049e-09,2.920780887701623e-05
761.0922007164276,4.314684448977234e-05,9.60198614706257e-10,4.3145884291157634e-05
793.3066057271925,0.00032546901917318886,1.3216958023197625e-10,0.0003254688870036086
838.9128926141848,9.631007079817406e-06,1.1064823643740406e-10,9.630896431580968e-06
892.3799751333196,0.0006642833784045615,1.1979708010060799e-12,0.0006642833772065907
908.3721916064213,0.03422228385359056,0.020816745682011938,0.013405538171578621
948.6796088772516,3.279589300627209e-05,2.1098442323539108e-10,3.2795682021848855e-05
1002.3648676184995,0.0007635800364427796,6.215475901212099e-10,0.0007635794148951895
1009.1653490370389,0.004145844221980659,0.0007451849087275646,0.003400659313253094
1015.5724114056316,0.0011033557996249221,0.0005296192270330524,0.0005737365725918699
1040.0972621764138,0.013725803427102567,0.007919756676061077,0.005806046751041491
1048.3129099304797,0.00024775278211486973,9.161149648705296e-09,0.000247743620965221
1055.9006378942588,0.0013302701137188101,5.65216572334418e-05,0.0012737484564853683
1068.7876331270431,0.015710049464028878,5.8073699946538946e-05,0.015651975764082338
1083.1897107913,0.026744315748213027,0.00398238018374223,0.022761935564470797
1088.5209043753148,0.06246359537030546,0.0006862371968804135,0.06177735817342504
1090.9535773246153,0.019937848265331234,1.7551263101735143e-05,0.019920297002229498
1091.4322333050175,0.002538217380688224,8.201046861987043e-09,0.002538209179641362
1092.1594182513,2.597179875283564e-05,8.773642351569615e-06,1.7198156401266023e-05
1112.1466013059803,0.057429221078017345,0.02885774859575913,0.028571472482258217
1155.162990502849,0.198139008509737,0.11769248917973235,0.08044651933000466
1205.694852094777,0.011981845994529844,4.451100885536701e-10,0.011981845549419754
1217.644152270701,0.01736214005960896,0.008686690831593026,0.008675449228015938
1226.7956852354075,0.0009174973116986493,5.7706584324540726e-11,0.000917497253992065
1242.226903259622,0.011329232853091295,0.00463401971322608,0.006695213139865215
1255.4220496886944,0.0008009576660426904,1.308312640265569e-10,0.0008009575352114264
1269.2192929729094,0.008737383463537758,0.0031423776609985684,0.00559500580253919
1283.519220098541,0.00021386862319931678,4.4596669457762656e-10,0.0002138681772326222
1298.5743793082963,0.00685874984095349,0.0033796467504735666,0.003479103090479924
1306.6541282424014,0.006353515256698397,1.4921948246028912e-10,0.006353515107478914
1322.533905541421,0.006576271872888107,9.762010219602088e-09,0.006576262110877888
1325.9380566439725,0.13345094526166937,5.084119244001104e-09,0.13345094017755013
1328.9953075842056,0.008715331327038346,0.00223770296615053,0.006477628360887815
1332.4443839850205,0.0017254980709748128,6.880492295350213e-09,0.0017254911904825176
1333.3860029607813,0.00013615806594016356,6.05167669691799e-09,0.00013615201426346664
1338.6456735339827,0.0062896022871631214,8.744963674190934e-09,0.006289593542199447
1338.8276785790035,0.0008232158917334469,2.7356218980819747e-08,0.0008231885355144661
1358.321041070717,0.011244622181756517,0.006019635873602425,0.005224986308154092
1383.96859505432,0.012439188227681058,0.003191163165777327,0.009248025061903732
1403.3287821286776,0.007404036456519941,0.003477205983921509,0.003926830472598432
1412.4227308807367,0.002753830143629998,0.0019533982530582843,0.0008004318905717137
1415.650609711065,0.009385622838227428,0.000770410656063529,0.008615212182163899
1420.775641557319,0.003987064281779011,0.00014506382392350672,0.003842000457855504
1421.2661470519915,0.004238668454382396,0.00016138941908837748,0.004077279035294019
1478.839491042985,0.006983096684517896,0.00011389098548458361,0.006869205699033312
1480.6331402430571,0.0023273933080084244,2.8418470241070527e-05,0.002298974837767354
1480.6756866700077,0.004834652370242934,0.00030075176038720365,0.00453390060985573
1483.274890812989,0.0015421377785668224,0.0011867101000776054,0.0003554276784892169
1483.5491154549807,0.05891701602823005,0.003992218325956918,0.05492479770227313
1485.604900963616,0.20577426012716143,0.017757053973398565,0.18801720615376288
1488.3123710957107,0.0027505924515075957,0.0020101362667786235,0.0007404561847289723
1492.1705224066393,0.01974335149726634,0.0024381135225310397,0.0173052379747353
1493.7263078267574,0.027055719792039412,1.763246390749436e-11,0.027055719774406947
1496.8515168393656,0.0013363281090827852,0.000591335122158593,0.0007449929869241922
1501.4555813614531,0.001961919944383091,0.0001209030239115631,0.001841016920471528
1505.0908889075977,0.002038599279429488,0.00020979057526644278,0.0018288087041630455
1506.6158445674976,0.00046345819233084486,1.2054494690364456e-06,0.00046225274286180844
3022.033440884276,0.10035576890115061,0.09142008726006862,0.008935681641082
3022.875428183806,0.08755625320809711,0.08402589773872379,0.0035303554693733212
3024.5626453394825,0.55755565607345,0.5320379889259775,0.0255176671474725
3025.2973476150582,1.2869870623398136,1.2679833767520527,0.01900368558776095
3028.2912032406325,1.7132488826962478,1.6678955983018764,0.04535328439437139
3030.385497943054,0.129703394117111,0.12896772289931946,0.000735671217791521
3035.3615806082644,0.24820472913608826,0.2315122905315283,0.016692438604559965
3039.9815169905196,0.13003851641731382,0.11754798297966432,0.012490533437649493
3041.544267041169,0.2933004391029987,0.2725565525983402,0.020743886504658467
3043.789241528131,1.1497261244415038,1.29807457879119e-06,1.149724826366925
3046.241169725978,0.08861705855379653,3.037817850049406e-08,0.08861702817561803
3049.8472366899136,0.9173554717807911,0.9100429981027506,0.007312473678040568
3050.4270850716453,0.3417686138738588,1.002048762074419e-07,0.3417685136689826
3056.0458376417746,0.024165682584942012,5.5024643160494115e-08,0.02416562756029885
3062.308700146665,0.1625824083005634,5.394822150765982e-07,0.16258186881834832
3064.4489387334925,0.4487014549467618,0.4361516020145829,0.012549852932178866
3070.65050022347,0.010211867506939353,2.51667882923181e-08,0.01021184234015106
3078.408927277967,0.09697669127125849,6.67898292822264e-09,0.09697668459227557
3085.0250552943126,0.004106523853084509,8.769489568467661e-10,0.004106522976135552
3090.1577017720488,0.018016941310915822,6.452723336163809e-07,0.018016296038582204
3107.819785107744,0.12123375670852003,3.090195090539598e-07,0.12123344768901098
3112.853276929419,0.1292524303230761,5.124775043203438e-08,0.12925237907532566
3119.227361322808,0.4361981584739901,0.3882259525815167,0.04797220589247342
3120.8618056183464,0.408624724433796,0.061818175707931765,0.34680654872586425
3180.170260544362,0.16058552937179463,5.752462784083588e-08,0.1605854718471668
