frequency_cm1,total_intensity,isotropic_intensity,anisotropic_intensity
3.061126588259987e-06,0.0,0.0,0.0
5.759063414176627e-06,0.0,0.0,0.0
1.83301196274307e-05,0.0,0.0,0.0
0.15309470561579822,0.0,0.0,0.0
0.3223876579414738,0.0,0.0,0.0
2.796852936621676,0.0,0.0,0.0
21.007911270894134,0.002574693305040306,2.2153853167318927e-05,0.002552539451872987
26.67302881853595,0.004098188532955483,7.390569039706693e-05,0.004024282842558416
37.137955007975606,0.0009043218969847839,9.846688871185982e-06,0.0008944752081135979
41.54436301082865,0.0010919714863904379,5.977000519028601e-05,0.001032201481200152
52.312650057030154,0.0009289447987156103,2.4685548715229065e-05,0.0009042592500003812
71.75048457048005,0.0013577949202222413,0.00013729589908125794,0.0012204990211409834
90.11491126990411,0.0032064548506999936,0.00020269017384625407,0.0030037646768537396
102.28906014015664,0.0009467919173188286,1.107083359036301e-06,0.0009456848339597923
116.11538238191766,0.0012238405194786703,0.00015404544581436696,0.0010697950736643033
141.29933011558182,0.000610932496691842,3.372684843768465e-05,0.0005772056482541573
150.47463203334263,0.00013456793875669726,2.115175535228459e-06,0.0001324527632214688
156.87120037640062,0.0002496934979620321,0.00016379920899500203,8.58942889670301e-05
168.0223795761098,0.005737442638737544,0.00422316438955585,0.0015142782491816948
177.2404627869652,0.004576744949534921,0.003465255611039442,0.0011114893384954788
232.68631685269833,0.0053074871157628035,0.00350184671862829,0.0018056403971345133
245.8494402566964,1.9794671293968954e-05,2.0787744943992085e-09,1.9792592519474555e-05
249.61631475012626,0.00025134754242888866,3.090420676568938e-06,0.0002482571217523197
316.8196471909531,0.003793476429967395,0.0019707844702010965,0.0018226919597662985
355.2186143303026,0.0017351273130559084,2.6001420437811326e-06,0.0017325271710121272
368.5824240056018,0.0005687652603607505,1.038655052457185e-06,0.0005677266053082932
420.4040630252223,0.0035150638292347144,0.0006973399912636355,0.002817723837971079
461.3331382063071,0.0006574074748503821,0.0002904733196662117,0.0003669341551841705
476.8575737025853,0.003103829747437245,0.0013725019148293164,0.0017313278326079287
487.8969997315395,0.0008004877259784688,0.00024394877093853197,0.0005565389550399368
614.5677773626519,0.006534154875467346,0.0012330141289121764,0.0053011407465551694
723.0389296291972,0.0459793231962238,0.04061001245473403,0.005369310741489769
728.7486452978106,0.00016414236040392376,0.00010737469423856024,5.6767666165363534e-05
732.6108754593506,0.0012535948674655133,0.0010901308863374775,0.00016346398112803573
744.6668448270774,0.0005661364412217231,0.00042652843580094423,0.00013960800542077887
769.2298538901267,0.0028050204237831068,0.0012704928541154522,0.0015345275696676548
792.2854588765564,0.011451701632908241,0.00811931375405727,0.0033323878788509716
836.1118696640904,0.005252134525142359,0.004297970122457985,0.0009541644026843739
900.930988994235,0.0038178741147414123,0.002968771108931106,0.0008491030058103062
908.2840074635716,0.031215608090208263,0.018614523804363303,0.012601084285844963
970.7256884794627,0.001349762322828093,0.001076274466964219,0.0002734878558638741
998.6682622280159,0.005890967501094744,7.016995483761118e-05,0.005820797546257133
1020.5891226034529,0.005245375267099173,0.002286489579310801,0.002958885687788371
1023.8891737809179,0.0016570736842603192,2.7068316485736498e-06,0.0016543668526117455
1037.4022595465462,0.0018115355248399224,0.00036549692812835855,0.0014460385967115638
1055.4822909166999,0.0037824891471203324,0.0027071546025513684,0.0010753345445689642
1077.2608492366724,0.027895287458191375,0.0011684540289884399,0.026726833429202936
1084.6373917069996,0.010318185686130063,0.0001834929721674018,0.01013469271396266
1085.5914678017527,0.0224587323422773,0.011564979441950915,0.010893752900326386
1090.2222476103034,0.03374032014191294,7.354901254886091e-05,0.03366677112936407
1092.1413093796702,0.029093807248347304,0.006283482385773063,0.02281032486257424
1098.1582499100766,0.029207444834861852,0.012881885029652628,0.016325559805209226
1127.1957949666075,0.0031536442377745255,7.5360878377859496e-06,0.0031461081499367396
1151.547477234896,0.15500874503319662,0.09592942562424965,0.05907931940894695
1178.3186383635275,0.001553647668201911,0.0008700099906892577,0.0006836376775126534
1200.997051194838,0.007062952981442547,8.994060225836504e-05,0.006973012379184182
1216.939502445039,0.0033091639799929027,0.0003905223497762924,0.0029186416302166103
1230.192642430413,0.0025342996775975972,0.0014499686891789611,0.001084330988418636
1249.087160962265,0.003349801175802609,0.0005568404990075595,0.0027929606767950494
1268.5960375230063,0.0003689090472479997,6.753709766417944e-05,0.00030137194958382025
1281.8087300074176,0.002028109867051644,0.00044856479294617377,0.0015795450741054704
1300.8275670712042,0.004548979252184001,0.0015008542867204827,0.003048124965463518
1309.5249237975856,0.009105781213436226,0.00015509495145835277,0.008950686261977873
1313.4831051467843,0.002198321766610673,0.0009385199116607973,0.001259801854949876
1327.9553741584748,0.0913344911830317,0.00013636200966219233,0.09119812917336952
1328.7230924187104,0.0049922145515555304,9.829147269948061e-06,0.004982385404285582
1336.593848623058,0.00017402090297632326,5.306013048024206e-05,0.00012096077249608119
1338.1355819325504,0.0026789005058611894,5.6352684025115745e-06,0.002673265237458678
1345.989408411397,0.0027325621458286374,0.001055742420733389,0.0016768197250952483
1379.2796998472995,0.0011953090414186006,5.135581931783176e-05,0.0011439532221007688
1403.0135588916107,0.0037506365378655124,5.1366058156426285e-05,0.003699270479709086
1412.452943657545,0.0013465846987763394,0.0007268892205808461,0.0006196954781954933
1417.2248289718202,0.0005811297105046192,0.0001303089108311722,0.000450820799673447
1420.9400834193664,0.007891810846885323,5.6026623081378886e-05,0.007835784223803944
1431.9984952615519,0.014054926632551836,0.00409615582053914,0.009958770812012695
1442.5507441048649,0.014715829001315982,0.007126117602686076,0.007589711398629907
1469.899316081022,0.054940566233456355,0.007762343699654838,0.047178222533801516
1480.5160065503612,0.005721378216760274,0.0008693852614811308,0.004851992955279143
1481.2807684571628,0.004299440872256114,3.134014839468199e-05,0.004268100723861432
1482.7531040935007,0.026177740360869773,0.0034519147171238043,0.022725825643745968
1484.9871002759821,0.10224518353350666,0.002605759650644704,0.09963942388286195
1488.0158772038221,0.02566885119746438,0.0008991508000710747,0.024769700397393308
1490.5663468371513,0.06415736379058729,0.0029864031047405213,0.061170960685846765
1493.8069002370714,0.026818975311726015,8.117437635856702e-08,0.026818894137349655
1494.3048745870888,0.013775964711235435,4.524176871122816e-05,0.013730722942524207
1498.6723721078422,0.006227043918041736,0.0007376849116233542,0.005489359006418382
1501.2524372741625,0.006364047177113148,6.898942578084571e-05,0.0062950577513323025
1503.1403939533259,0.011718431586485256,0.0006183611720900788,0.011100070414395176
1505.938820977379,0.001787876255178134,0.00023573684926285392,0.00155213940591528
1514.1137627471762,0.009115585275020814,0.0002134457639375541,0.00890213951108326
1546.7146595063223,0.019848201754925927,5.926993659991612e-06,0.019842274761265936
1738.102224894419,0.07034675986034811,0.04288089637823204,0.02746586348211607
3022.5392239207285,0.05942865069134635,0.05035035159830917,0.00907829909303718
3023.8779274872923,0.28324821356581104,0.27639316665045643,0.006855046915354606
3025.4534470502253,1.9014934251483588,1.8445645950850083,0.056928830063350616
3029.178148023084,0.08232469904825519,0.0774735828966034,0.0048511161516517935
3035.5847085011565,0.38386289181102445,0.3582548543681365,0.025608037442888
3035.925340866713,0.08335495455569208,0.006719230572572794,0.07663572398311928
3041.0628085077155,1.6413743931555893,1.5648583137306562,0.07651607942493319
3041.271131674874,0.08663048636977204,0.0284376144333669,0.05819287193640514
3044.6741780631487,1.034431885814254,0.0718685501621984,0.9625633356520558
3046.504452090304,0.589929481161939,0.5659884134271405,0.023941067734798576
3049.947071161526,0.7630207033885074,0.7548559183415758,0.008164785046931472
3050.077907238575,0.2589901562405392,0.24746841638733463,0.011521739853204602
3057.728844893221,0.2324176513392711,0.015045071645607472,0.2173725796936636
3067.764296134262,0.018245035380968205,0.01664562972467044,0.0015994056562977645
3075.48019970321,0.3672218567327385,0.26181650616997304,0.10540535056276547
3078.6020070502873,0.18523085573763665,0.0887893687795096,0.09644148695812704
3082.9112997507664,0.5852102115952657,0.0057392414904110034,0.5794709701048546
3086.2675843658617,0.09273192635843536,0.0007117280300857209,0.09202019832834964
3086.6299468368334,0.011273522213951368,0.006434421564158982,0.0048391006497923855
3094.765840938701,0.07723203374945833,0.001597018681825101,0.07563501506763323
3112.9482463519507,0.12829612459726217,3.6009078378685044e-06,0.1282925236894243
3121.0868901296026,0.4108204654993681,0.06292641716667738,0.3478940483326907
3134.997692748149,0.16791381328217497,0.06279258239329526,0.10512123088887972
3190.770386510828,0.16946164623102325,0.03165473937010097,0.13780690686092228
3197.0817625895575,0.2218119003501943,0.060718419917271706,0.1610934804329226
