frequency_cm1,total_intensity,isotropic_intensity,anisotropic_intensity
3.270656079623792e-05,0.0,0.0,0.0
2.0746350263161127e-05,0.0,0.0,0.0
1.6130943543076925e-05,0.0,0.0,0.0
1.0578940394056997,0.0,0.0,0.0
1.7880492207121104,0.0,0.0,0.0
2.077897466911864,0.0,0.0,0.0
45.80605533539252,0.9688236538541753,0.0026197273174035805,0.9662039265367718
54.66295815138994,0.282434407028455,0.0004814003287059301,0.2819530066997491
66.34922722212615,0.4722628528933762,0.15856374204340032,0.31369911084997587
104.18221756473075,0.13112984816134315,0.013233591567769112,0.11789625659357406
127.84403405242874,0.3609474517106947,0.022616406692748184,0.33833104501794653
152.31200973024806,0.07552454611937127,0.010838657787681245,0.06468588833169003
210.21016259667013,8.958497312446845,3.3504221980562305,5.608075114390614
212.5692254881649,0.805183240451989,0.3141452822325724,0.49103795821941665
223.29404106005262,0.8412527648845091,0.281277443405609,0.5599753214789001
237.80859370378096,30.25712522860643,12.261045970779278,17.99607925782715
256.08240225047746,0.0973897080203853,0.07431827673684897,0.023071431283536323
267.28621687429086,1.925782375728046,0.9788521780141672,0.9469301977138788
285.05126767962463,14.91895105490294,8.19370286769062,6.725248187212321
295.9258207726078,6.513582345552692,2.7914113178335347,3.7221710277191566
301.8384177807144,6.419698560676482,2.7993861547028143,3.6203124059736673
317.7604394761202,15.345861602746666,6.976632817782427,8.369228784964239
326.9491873200584,15.084656499331054,5.623450825957286,9.461205673373767
340.3222476283726,0.7284090796009901,0.3103072296998227,0.41810184990116744
386.72756848109526,9.626895318214682,4.704685495649874,4.922209822564808
397.933930848295,0.08007656076438202,7.245026211498855e-05,0.08000411050226704
419.97706452477445,1.2555634450635103,0.4148326749191646,0.8407307701443457
453.03353830233215,10.475631846356233,5.026534658562346,5.449097187793886
469.33797770819365,2.7945746464811734,0.32576598411714097,2.468808662364032
502.16792358662656,97.83007811986657,48.62354086184148,49.206537258025094
524.244580278752,60.82310530035051,29.49930673904849,31.323798561302024
544.4500871491856,19.49243855271223,7.943687415199572,11.548751137512658
569.40213538373,2.91971157323949,1.4333096779337458,1.4864018953057445
583.572834347059,1.5027724446410546,0.0001428118337053333,1.5026296328073494
627.9692238784239,3.9848336251226524,1.4080946559685739,2.5767389691540785
638.0898291255905,22.536907524650136,7.859608801582126,14.67729872306801
701.6740464887827,115.47733894234976,45.60483846489872,69.87250047745104
821.788167617969,12.976149785882717,5.05223725941815,7.923912526464567
839.7642848469035,358.3165173634546,156.32738574833581,201.98913161511877
882.1013431601928,155.3930889239852,64.0332649136605,91.35982401032469
885.8634522157251,7.035530701464265,0.40343739378913007,6.6320933076751345
926.9026327975614,35.46556013788447,15.656217726880273,19.80934241100419
951.3675137086123,1.1606689863282997,0.009863868161241783,1.150805118167058
957.4436198246551,1.9330310227024334,0.6724033107111861,1.2606277119912475
967.5993296104878,7.756235543561105,0.050059912670946144,7.706175630890159
995.3370579521745,101.63273046257513,39.416556957469105,62.21617350510602
1010.1897858737726,7.305150509485038,2.379756517607675,4.925393991877363
1010.6642145250948,3.2070637226299583,0.4915386632402317,2.7155250593897264
1022.7063185995978,15.894422568796822,7.018001482899487,8.876421085897334
1049.1726930624118,114.66686922642273,51.59272658294986,63.07414264347287
1052.729856069827,1.539941635463435,0.0025064219410421314,1.5374352135223928
1057.2804776492303,51.88559369278416,0.12877057808052447,51.756823114703636
1110.0199426252614,10.8484058279057,0.1415385714087048,10.706867256496995
1126.8058772141405,510.57198958483764,214.29231012283796,296.27967946199965
1145.4792649246674,315.33925950777405,134.65149513552862,180.68776437224545
1161.6831651058305,650.7304028755959,277.11895273308147,373.6114501425145
1207.259981557777,6.558977775306156,0.9727857141703411,5.586192061135815
1222.7747510108675,74.45356270844118,35.204896684359234,39.248666024081956
1247.4412102663343,3.1630560007488446,0.9851201420713707,2.177935858677474
1272.335213055894,2.762296798729923,1.8662743655829885,0.8960224331469344
1273.1909336904098,7.38591866853925,3.794508767964573,3.591409900574677
1317.5984585729213,649.6675791161041,300.82917653761774,348.83840257848635
1328.8911515875102,24.459805661189556,9.992432637087703,14.467373024101853
1333.1285613049188,100.81477666765781,48.63821079610073,52.17656587155709
1353.96049869968,72.93019940952557,31.686507664005052,41.24369174552052
1369.859982507564,1001.0559481229355,453.68442229141726,547.3715258315183
1380.3013644518617,9.082454488901401,0.9100196794991843,8.172434809402217
1388.3225528807966,28.670857456924445,17.03092274568357,11.639934711240874
1402.2599405119524,3.2469748855209186,0.004395214512795789,3.242579671008123
1408.877231350992,7.535346395531409,0.037796811258581794,7.497549584272828
1411.4299862721086,2.114274416358877,0.715598823134326,1.398675593224551
1420.0571491768603,1.111927787057625,0.21438142717913472,0.8975463598784903
1424.1288296238918,433.99969011213784,202.86366744905996,231.13602266307788
1473.2790323085023,0.19474668776575144,0.01614065006103676,0.17860603770471467
1478.4460425225793,0.6046696293941566,0.04899075688380936,0.5556788725103472
1478.9232382684866,1.1669563491436592,0.005688164422720767,1.1612681847209385
1483.4327757370384,7.362520002653952,3.3687356732215847,3.9937843294323674
1496.0980298493682,1.0890397287421105,0.0007792396479877601,1.0882604890941228
1498.3856355343485,4.055898534971254,0.0014780331976477139,4.054420501773606
1498.6663594730996,1.925849729522078,0.916168128580372,1.009681600941706
1505.2477279104578,1.0604469582753404,0.20324502626583416,0.8572019320095063
1506.473015426121,18.21042082781009,8.639120348879494,9.571300478930596
1511.4612327800437,12.500881903202902,6.518395857861594,5.982486045341307
1518.7332965480477,6.308032631909462,0.06078625650617031,6.247246375403292
1519.242676203551,38.298142071472746,9.50710487992709,28.79103719154566
1530.6233016568804,1.0583562583022033,0.0031415423636612975,1.0552147159385419
1774.7928332620484,0.39679294560819667,0.3454557067237147,0.051337238884481995
3049.6594953626945,13.556614881300991,2.073926268689473,11.482688612611518
3054.1575555606614,29.796423545273633,3.0518632415330305,26.744560303740602
3069.0936679298648,3.0394613325131745,0.15839151569343357,2.881069816819741
3070.14251327594,3.4640791457180846,1.1628422097945117,2.3012369359235727
3071.919687100283,1.7961492908763106,1.6168670669423746,0.17928222393393595
3073.0725331211597,1.6781450573124137,0.14760495267242074,1.530540104639993
3075.7605693455175,9.613835242047601,2.5032095677380486,7.110625674309553
3082.578763686695,2.4558261784714923,0.5886759438607693,1.867150234610723
3101.298097333612,5.169824912466488,1.8947025295947661,3.2751223828717224
3111.9610938809037,8.071485387045426,5.607742510735934,2.463742876309491
3136.007916893918,12.79670021895689,0.008461086832115874,12.788239132124774
3136.203727879985,2.058753177371705,0.044991503165018175,2.013761674206687
3136.5278191095745,3.2834930800149875,0.43681011847052037,2.846682961544467
3140.505201466132,35.118659388100816,0.07642605334706683,35.04223333475375
3145.2415638041643,7.177726623262838,1.1217205452910388,6.056006077971799
3151.422231249906,2.951855987462886,0.010933672770882244,2.9409223146920036
3157.5485225906273,6.577463572552912,2.3910379175315213,4.18642565502139
3173.6052769666876,14.208719804447739,0.3638741856054218,13.844845618842317
3175.231153761957,6.878225190768959,0.6133816209398935,6.264843569829066
3192.493279778498,0.28656698011581605,0.11916895606254521,0.16739802405327087
3618.440383420538,7.738287906510637,4.88752746946906,2.8507604370415773
