frequency_cm1,total_intensity,isotropic_intensity,anisotropic_intensity
2.4531756274010066,0.0,0.0,0.0
1.7850306264985267,0.0,0.0,0.0
1.7754475017831954,0.0,0.0,0.0
2.3455734192490453e-05,0.0,0.0,0.0
1.609302178773242e-05,0.0,0.0,0.0
1.3380174130543136e-05,0.0,0.0,0.0
12.527979984214316,4.901992747317336e-08,2.4088424531730047e-10,4.877904322785606e-08
31.820632143085497,0.013465916323182538,0.0011521374423772968,0.01231377888080524
31.932989698008402,0.0015706273923893378,0.00013518554700001865,0.001435441845389319
37.135436384908,8.174863968509985e-08,9.283148596591886e-09,7.246549108850797e-08
46.5387546978238,0.016042921873289383,0.00030680710604716316,0.01573611476724222
53.75885730127436,0.004218928271468907,0.00010918252656265738,0.004109745744906249
55.60633869482252,1.4598703054390912e-06,5.233691837938285e-10,1.4593469362552974e-06
67.30438809590588,0.006563915571872851,0.0018699751571213364,0.004693940414751515
75.83583766372023,1.0135373379860007e-07,3.388094289059349e-09,9.796563950954072e-08
107.53331689282336,2.1072431873807395e-07,9.324721469437241e-09,2.0139959726863672e-07
108.4029209988482,0.007675775813422643,0.0006370082402386277,0.0070387675731840155
126.11211381539874,0.0073726097497404915,0.0007715664977567181,0.006601043251983773
164.65189277450764,3.7786915250604495e-09,9.008722372553469e-10,2.877819287805103e-09
217.621390930632,0.00013887650840880262,7.917581384098767e-05,5.970069456781495e-05
218.02360865513864,0.004867273855188141,0.003421038949878924,0.0014462349053092167
222.04996416769086,0.008510479124607692,0.005850453850426807,0.002660025274180884
225.14950287838397,5.600249348758531e-07,2.94137979056729e-07,2.658869558191241e-07
243.07676463281197,0.012907644737996653,0.004317529173350122,0.008590115564646532
255.9194604519639,0.0037160660735500416,0.0009008963797713391,0.0028151696937787026
273.98337109501495,4.8721719144540684e-08,1.0642225786539494e-09,4.765749656588673e-08
325.29212483113923,1.4001819288558934e-06,1.097895835306738e-06,3.0228609354915534e-07
327.8500030298463,0.011165793306187602,0.008744480350744323,0.002421312955443279
346.65617457818985,0.014899499214639952,0.0011701016503782888,0.013729397564261663
370.7801517370265,6.079184995599703e-08,4.146887756460024e-10,6.037716118035102e-08
410.69720907512806,6.030801719965389e-08,4.094905509335365e-08,1.935896210630024e-08
425.9366435550109,0.01046093323526783,0.00011971973697334687,0.010341213498294482
426.5025799423857,1.5975788746995969e-06,1.1192130704672784e-08,1.586386743994924e-06
447.9606567905509,1.5605648592630173e-08,6.202341837646178e-09,9.403306754983996e-09
499.4041507839731,0.005625403213081932,0.003110214482449674,0.002515188730632258
525.1283383622064,4.001313984364509e-09,1.2662467595915083e-10,3.874689308405359e-09
540.6397196029764,0.0018821161496846766,0.00020587887064477562,0.0016762372790399011
607.2453030073494,1.8289600247849502e-08,1.3909613219336868e-08,4.379987028512634e-09
642.5005239012227,0.02817139509844372,0.017293082126996023,0.010878312971447698
647.0601348598303,0.023641736891120358,0.008128481465202184,0.015513255425918174
685.8628937903461,7.125737545888591e-09,3.7947234928197854e-10,6.746265196606612e-09
739.7425223959651,0.04156340676742542,0.03406169539877849,0.0075017113686469275
760.4239041677941,3.059297371490982e-07,2.770943712493309e-07,2.883536589976732e-08
780.103812548151,0.03386994604573787,0.028210999626961848,0.00565894641877602
787.9576363008035,1.3084891840753348e-05,5.250405124497748e-07,1.2559851328303573e-05
788.5041389746716,0.0025200769190909947,0.00022941834570665816,0.0022906585733843366
789.6200895840387,1.7036683981410892e-06,9.411992596061583e-07,7.62469138534931e-07
795.8266713321876,0.043779451994166024,0.038833102909231657,0.00494634908493437
811.6071999598423,0.03782732004674548,0.02602476648748126,0.011802553559264217
866.0031881463035,5.867797133364722e-08,3.8138485153803494e-08,2.053948617984373e-08
874.2927615607639,0.007806470358009781,0.002237915655243917,0.0055685547027658645
903.2208235174454,1.9303862903508847e-08,1.9758808416012484e-09,1.73279820619076e-08
905.4410091212022,0.021538376558890234,0.0031545828524316907,0.018383793706458543
961.5640970042531,0.021785174481169817,0.0011681549907294369,0.02061701949044038
961.6105762163993,0.0003570224519153646,1.994338710952334e-05,0.00033707906480584125
998.6136315099734,0.003946373084613664,0.0030048615567100766,0.000941511527903587
1010.3039585201855,1.245974365261564e-08,4.464497535064644e-09,7.995246117550996e-09
1026.6074292786286,6.805898838233455e-06,4.319846851529657e-06,2.486051986703798e-06
1030.6706047860807,0.1395614657297816,0.0892822501833909,0.050279215546390706
1051.143616043518,3.171106216213788e-08,1.4625673861901095e-08,1.7085388300236786e-08
1101.0772640441685,0.0043462002221297865,0.003297112867757751,0.0010490873543720358
1101.1114302408555,0.029170363129726325,0.02213056075878225,0.007039802370944077
1106.8140522998144,0.0322679916246349,0.025936619404631486,0.006331372220003415
1107.395670252782,4.9084418529199985e-05,3.962501171238115e-05,9.459406816818838e-06
1121.6843877022156,0.021197294239887133,0.003964274692083891,0.017233019547803242
1121.8207863198563,0.000270933527281409,5.305647918498445e-05,0.00021787704809642455
1125.8170024491994,0.04421966105739186,0.02753209675882752,0.016687564298564342
1130.0280496578625,5.416042109408473e-07,3.499233881595018e-07,1.9168082278134546e-07
1136.3606819082622,6.409463953829951e-09,7.349918492708998e-11,6.335964768902861e-09
1207.5607294745091,0.026951570034313338,0.006495691016250383,0.020455879018062954
1233.8672441928093,0.1093018052812146,0.07751761171508684,0.03178419356612776
1236.7009300277757,3.5888044937913135e-08,1.616724429635831e-08,1.9720800641554825e-08
1266.568793011124,0.004418864751629565,0.0010946748773762068,0.003324189874253358
1266.6591303625125,9.662934101083646e-05,2.3807956686492898e-05,7.282138432434356e-05
1297.8423827705217,8.883958079229547e-08,6.870931984015353e-08,2.0130260952141943e-08
1321.2839645077922,1.4818259280698747e-06,7.711779277279472e-07,7.106480003419274e-07
1325.510988396889,0.1306053094585914,0.07280003360206798,0.05780527585652341
1339.3903989141115,0.019692485914570484,0.012107634738788953,0.007584851175781531
1355.6400352278783,1.848013957755159e-05,1.0858824685635429e-06,1.7394257108988047e-05
1356.3621271272712,0.024241019944281017,0.0013222791810710865,0.02291874076320993
1385.8043791790244,1.4861828005145893e-05,1.4415619502686913e-06,1.3420266054877203e-05
1386.044634935073,0.010832952838368907,0.0009866254608062637,0.009846327377562643
1400.2565512042981,0.00016716421956477755,3.0513166475900608e-05,0.00013665105308887694
1400.4377707880378,0.02709000425943297,0.004977647423556162,0.02211235683587681
1413.5079558324692,0.00019859545018064334,6.488032469530224e-05,0.0001337151254853411
1413.5350644899393,0.012894565330794746,0.004222167802455185,0.008672397528339561
1414.4588238587025,4.3339152511727646e-05,5.9149185675535394e-06,3.7424233944174104e-05
1414.615552690141,0.012586236701203991,0.0013943400019016355,0.011191896699302355
1443.4450115074303,4.9989460993976725e-08,9.59676501972896e-09,4.039269597424776e-08
1470.0633954094037,5.450610072497866e-07,3.606023564310448e-08,5.090007716066821e-07
1472.04787729485,0.07707887799932547,0.0002712659122081998,0.07680761208711727
1481.7845657434948,6.661090692613383e-06,8.573829442028022e-08,6.575352398193103e-06
1482.333913686737,0.11203698810439691,0.0023455182088832583,0.10969146989551365
1487.3233743324993,0.018758353500407814,0.0006157058717774696,0.018142647628630344
1487.4233930302676,7.06128536996839e-05,2.038077307173353e-06,6.857477639251054e-05
1489.4561209045883,4.8317018319047185e-05,8.086095618731185e-07,4.7508408757174064e-05
1489.6832605651937,0.07537191738210702,0.0014993472027265207,0.07387257017938051
1497.073298581891,6.653787096815964e-06,1.2227490108716002e-06,5.431038085944364e-06
1497.299132801099,0.0531990244879912,0.00858982402795772,0.04460920046003348
1501.2896983574315,7.053922025683517e-07,2.9882534808857534e-07,4.065668544797764e-07
1501.554475712907,0.008980453282897548,0.0035912851422818613,0.005389168140615688
1518.1963913776071,6.901451633646892e-07,4.459409581941948e-07,2.4420420517049443e-07
1525.702976947468,0.16091676004905692,0.09585278707164781,0.0650639729774091
1570.060283869583,2.051582974515956e-07,1.0028748464685795e-07,1.0487081280473765e-07
1639.3926965821333,0.01662759488143762,0.00048167633793892836,0.016145918543498693
1692.2416686425536,0.3638749997384795,0.08179064953717735,0.2820843502013021
1730.083999711036,0.17529298400294024,0.13449328970786179,0.04079969429507846
1731.3050650345476,0.00018586163673365175,0.00014179554975065318,4.406608698299856e-05
3057.581983371235,0.6000117613260457,0.5536516710552511,0.046360090270794616
3057.597652764493,1.2046977070470206,1.112102854137695,0.09259485290932565
3063.759280749203,0.6854910730582766,0.6274431641149872,0.05804790894328933
3063.9511559515254,0.7220698336573794,0.6610233429586868,0.061046490698692585
3077.1597839959045,0.3696405615897571,0.005278236741505428,0.3643623248482517
3077.217316676462,0.07933301964637378,0.0014256076222231551,0.07790741202415062
3084.0752990380456,0.04404340283464752,0.03885121607860808,0.005192186756039441
3084.280517023487,2.264953442714585,2.002456101873373,0.26249734084121223
3118.824946050742,0.3603007256056591,0.04780625261226978,0.31249447299338934
3118.848908680655,0.40730465888208256,0.05391644050360764,0.3533882183784749
3128.9416261833717,0.33188037764675526,0.022715501022010875,0.3091648766247444
3129.115467251612,0.34091934493342696,0.023346903027070296,0.31757244190635664
3137.8656974535793,0.1259542225351612,0.01927043455126707,0.10668378798389413
3138.0147642826555,0.37124591968382814,0.05583482040788864,0.3154110992759395
3139.6249975790543,0.06085992194566194,0.012454702296736698,0.048405219648925246
3139.6463545884226,0.6620850141501664,0.13404452348985965,0.5280404906603068
3150.2627253046794,0.054455305987329575,0.009190035644546544,0.04526527034278303
3150.373372789792,0.05744547596369784,0.009980922795966832,0.04746455316773101
3163.7059694446853,0.00522010337345458,0.0030152040200925596,0.0022048993533620204
3163.9958242076304,0.2659344453027882,0.15446142292009335,0.11147302238269488
3191.7071840857357,0.0014790851056015186,0.0004686376254967376,0.001010447480104781
3193.123443790052,0.5119622290740169,0.13850388227136226,0.3734583468026546
3215.333645693803,0.0006607728196551187,0.000499428637223371,0.00016134418243174772
3217.0299920801144,1.0452473358138743,0.7704643544345997,0.2747829813792746
