frequency_cm1,total_intensity,isotropic_intensity,anisotropic_intensity
4.552314037907239,0.0,0.0,0.0
0.8971628123990079,0.0,0.0,0.0
2.5167434432158743e-05,0.0,0.0,0.0
1.3106088961571546e-05,0.0,0.0,0.0
1.6193186096954072e-05,0.0,0.0,0.0
0.13677096790238344,0.0,0.0,0.0
23.46221871164823,0.0042864648569407955,4.482394123123812e-07,0.004286016617528483
30.94677893406671,0.03226698300792716,0.006061524471212229,0.02620545853671493
33.42100098237818,0.004529421538572775,2.780952688715356e-07,0.004529143443303904
59.6114739768547,0.001810431045826456,4.9724877131237305e-05,0.0017607061686952187
72.47788389677729,0.014242400506573744,0.003488312143179944,0.0107540883633938
79.6420189352134,0.002053501928739287,5.7597836122198656e-05,0.001995904092617088
114.34248883086484,0.05425179764848329,0.02395938647097052,0.030292411177512774
120.4489346143563,0.018723667694410414,0.007767916551261391,0.010955751143149024
122.22507682141818,0.08262704248240377,0.03380172427114547,0.0488253182112583
159.66367944474914,0.027624361847259922,0.00642765377387341,0.021196708073386514
179.691460599456,0.15593401267886212,0.06574038385989082,0.09019362881897129
187.99152562099337,0.01456116512597018,0.00204803323317219,0.01251313189279799
196.29891171983522,0.03679335325088391,0.016113276313797414,0.020680076937086497
239.41728484106545,0.01638401911602913,0.0028513949934054284,0.013532624122623703
251.16427044972323,0.003080275106807678,0.0010475758043161252,0.002032699302491553
262.31177263284854,0.00738680882190338,0.001391895992454375,0.005994912829449006
317.4732575033936,0.020273467163910444,0.0030201134070386095,0.017253353756871835
345.950826958409,0.028818165624785532,0.011186313915739484,0.017631851709046048
351.48447771903324,0.11058355184763224,0.036870616605650164,0.07371293524198208
409.22162669911955,0.00228976212691302,0.00047907251214041914,0.0018106896147726008
423.4553295513764,0.029307078361848288,0.011485959859158167,0.01782111850269012
429.42739324442863,0.03528454600113525,0.013034895614456492,0.02224965038667876
441.53068926476743,0.030808457364353684,0.011740741130868742,0.01906771623348494
452.3145811872276,0.028478981022231353,0.022441293225137104,0.006037687797094249
480.9278402325616,0.012814980015324075,0.004272412763345022,0.008542567251979053
507.5296774526697,0.00935408326961593,0.005556270757894168,0.003797812511721761
539.2121423859879,0.018019942813991836,0.010140367662151002,0.007879575151840837
541.5448794904721,0.017429821198089016,0.004526341613669178,0.012903479584419836
561.1491697542416,0.01848154074867077,0.008583596665991336,0.009897944082679432
615.3983823180713,0.030875014592459733,0.018856972037019873,0.01201804255543986
649.7769985197791,0.060252501768709436,4.225851921514767e-06,0.06024827591678792
658.1909917130466,0.011511699846590614,0.00039293352476629106,0.011118766321824323
741.3463203360076,0.04892252994652368,0.03466929035714052,0.014253239589383163
749.2009054585261,0.03660166633429177,0.02362699697412942,0.01297466936016235
758.3689363180072,0.005686541002518289,0.0012530108058874368,0.004433530196630852
803.609264057113,0.28791302067095703,0.1953043065696976,0.09260871410125945
822.8530473294479,0.04894165138155725,0.024762127759644502,0.024179523621912745
829.7442340085686,0.005530507179856351,0.0022506946214067578,0.003279812558449593
842.5410451533679,0.0168094907081286,0.004629314075265071,0.012180176632863532
854.432497891129,0.013850508046460357,0.004330049501563123,0.009520458544897234
864.499523678997,0.012348691817757789,0.007553331761431623,0.004795360056326165
870.0054219039162,0.015734751038743267,0.0028315762672445114,0.012903174771498757
913.3709924098463,0.0609175880129788,0.013385021350917592,0.04753256666206121
948.8690693965303,0.018143668248012734,0.012633630062391626,0.005510038185621107
966.8247310316955,0.012243606113792946,0.0012147411674082187,0.011028864946384727
976.1895467529071,0.030330822825485423,0.011497586178263672,0.01883323664722175
981.7410238918618,0.0030013787614282307,0.0011034329889441264,0.0018979457724841043
994.943413215758,0.06670282276510973,0.0263700625226017,0.04033276024250804
1008.8978993825707,0.014571255536716598,0.006404577189402244,0.008166678347314354
1026.815045482816,0.31515512958550096,0.13448570816586886,0.1806694214196321
1032.680215933153,0.13310231020397162,0.05105491246443304,0.08204739773953859
1034.7650213925083,0.0030946996551761696,0.0006596446031354469,0.0024350550520407226
1087.8752855038256,0.0006586223632601049,0.000427316948097208,0.00023130541516289685
1096.2829268281805,0.12988006508617678,0.07499403432068537,0.054886030765491395
1133.213288484926,0.0028502539104053796,0.0008533710910000328,0.0019968828194053467
1133.6415840491038,0.05285808015636941,0.019921199219144724,0.03293688093722469
1145.0933828134523,0.6184247400395787,0.32644012484193874,0.29198461519763996
1146.7567416351721,0.018460485417359687,0.012092860594265951,0.006367624823093736
1159.5544849551668,0.14550343678891886,0.084655627181488,0.06084780960743086
1178.7803648389615,0.0025354069972659335,8.515618328540925e-07,0.0025345554354330793
1195.2909195870795,1.8868324361378574,1.0771007219859279,0.8097317141519295
1198.8018092408474,0.8211838610576028,0.47631156892732046,0.3448722921302823
1208.067649523118,3.7740194044203235,1.6712152592394314,2.102804145180892
1237.5900175080008,2.208944171934811,0.9946903479417575,1.2142538239930534
1270.7247929913083,0.07437062958114171,0.02642340059749635,0.047947228983645354
1276.1430226633142,0.09782714624606649,0.01125034490699595,0.08657680133907054
1286.1852666895627,0.602761889675063,0.2869138427019008,0.31584804697316216
1307.684159413533,0.02509690863264997,1.8970616097664374e-05,0.025077938016552306
1319.7472112118878,0.4757016215285086,0.3277029218811826,0.14799869964732598
1328.3978005666572,0.02129095387256589,0.0025107375882267398,0.01878021628433915
1340.4251747226592,0.7223848198160735,0.3437477247065662,0.37863709510950727
1363.6469092768166,0.02025000615364125,0.006341404728035445,0.013908601425605805
1390.3899233180473,1.148342936218173,0.5597452317668731,0.5885977044512999
1398.4800018087665,0.008304489432001003,0.002074077188306325,0.006230412243694677
1412.603397107653,0.044954999110014646,0.025221332186048013,0.019733666923966633
1430.7013337203448,0.020414612378044976,0.016978797586167518,0.003435814791877459
1445.4023569522303,0.058901829512205794,0.016576770583971067,0.04232505892823473
1470.1834583940374,0.016319391223686634,0.00025604145605385146,0.01606334976763278
1478.9232587086676,0.4395509327178003,0.18476583766966168,0.2547850950481387
1480.3006270649419,0.036385898984230794,4.351087441525563e-06,0.03638154789678927
1484.630790932144,0.12383331435200506,0.025223038821436575,0.09861027553056849
1486.316898559146,0.04563512593855826,0.025392946376646307,0.02024217956191195
1494.4675654197522,0.06923203810087547,0.0040468463431237185,0.06518519175775175
1496.4181156324423,0.03474737992769577,0.0014291353286517911,0.03331824459904398
1515.0894214947737,0.0619933900469096,0.023944144464925498,0.0380492455819841
1518.303979185766,0.012629934648410963,0.004051284930124921,0.00857864971828604
1533.4623592376315,0.29177567619400835,0.09847295658052369,0.19330271961348466
1555.0645044103464,0.8480672687263056,0.3350641781151053,0.5130030906112002
1578.9979513967276,0.004299445270476938,0.001705874827697477,0.0025935704427794614
1635.960094012734,1.9626496716684705,0.7819286238395747,1.1807210478288956
1652.6043628181449,0.004580716442079536,0.0014821899519052,0.0030985264901743355
1679.8709069940473,24.248764330612715,9.180032266887423,15.068732063725294
1689.5296904902643,0.17426135472495669,0.09875485221540624,0.07550650250955043
1738.5973587818964,16.007321032298872,6.973067038365011,9.034253993933861
3009.36067041085,0.34517648630258735,0.07124567735322838,0.27393080894935895
3014.211707158112,1.1673912570948264,1.0749269114275946,0.09246434566723181
3025.853722774171,0.5367768672785219,0.5159206225478942,0.0208562447306277
3042.184487238984,0.2235418738689558,0.11897389877233902,0.10456797509661676
3066.748989601011,0.24259267571432044,3.058879712061197e-06,0.2425896168346084
3068.7769410312026,1.1158398592681251,1.0766180684141726,0.03922179085395242
3101.494604959574,0.3512971892060887,0.005400999407467121,0.3458961897986216
3102.5698822350187,0.5046478855096687,0.4400036279321222,0.06464425757754641
3140.585241490663,0.38840371220721737,0.003296456670013591,0.38510725553720376
3149.3167287192273,0.21021627329448161,3.918235113242128e-05,0.2101770909433492
3153.0520200421856,0.017341965027970918,8.516567459560105e-05,0.01725679935337532
3161.4157228527074,1.0798605093551892,0.3325774244334878,0.7472830849217014
3185.4373973302354,0.27049892122195357,0.05192401154662556,0.218574909675328
3207.8973190420174,0.26579076602731405,0.044339987164343356,0.2214507788629707
3209.300360616577,0.2931424317320533,0.018679686647390042,0.27446274508466323
3212.8769591487207,0.1940267261322293,0.017077653016861236,0.17694907311536806
3223.082846239978,0.7238201563039471,0.5749193924082363,0.14890076389571083
3234.6260684344493,0.7332430244143208,0.5270407189726569,0.20620230544166387
3238.473470789047,0.1794691746554608,0.0006325023163859048,0.1788366723390749
3240.458938552149,0.7145673896864714,0.5125022281756872,0.20206516151078416
