frequency_cm1,total_intensity,isotropic_intensity,anisotropic_intensity
1.4532572874378606,0.0,0.0,0.0
1.5476242695204556e-05,0.0,0.0,0.0
6.766186286167918e-06,0.0,0.0,0.0
2.0512728699079616e-05,0.0,0.0,0.0
1.0183474645680142,0.0,0.0,0.0
1.239002486977471,0.0,0.0,0.0
8.594209336308401,0.003288458760099137,1.2268886320386652e-05,0.0032761898737787504
14.802035938005885,0.0006730573714964401,1.0861944626246548e-05,0.0006621954268701936
19.232993138408204,0.0003559214286884926,6.815882918079395e-05,0.0002877625995076987
22.606021684230818,0.0009697963084168744,2.220057405563393e-05,0.0009475957343612404
36.95559501294249,0.001051854650980999,2.0385666887627778e-05,0.0010314689840933713
40.60227302022619,0.0001470090946840798,1.947433876872875e-06,0.00014506166080720693
46.759734111702834,0.0008114702606150427,0.00011845817143361093,0.0006930120891814318
57.03682966793611,0.0005035258896715055,0.00014233299139272392,0.00036119289827878163
69.91220344160982,0.0003275951025250142,2.3493886747712117e-06,0.000325245713850243
84.87128837553634,0.000556057683847884,2.7427606457982685e-06,0.0005533149232020858
105.1442068823373,0.0003812029099191506,0.00010279265360654657,0.000278410256312604
112.9483335654704,0.002018958535883428,0.0008886296826844286,0.0011303288531989992
119.61209950786191,0.000197249251388834,8.068506233750532e-05,0.00011656418905132866
133.12072997887273,0.0001677110738896119,4.247303005029721e-05,0.00012523804383931467
146.3291563059633,0.002097224826172201,0.0015475781562818778,0.0005496466698903232
173.24580920202243,0.0016469242315120696,0.0008495570997085946,0.0007973671318034751
183.7568349708916,0.0007265150313145305,0.00023880065370296302,0.0004877143776115674
217.17542083359132,0.00047595114201567706,0.00020611144581600036,0.0002698396961996767
234.5141947054276,0.006717905139924908,0.005176114277047426,0.001541790862877482
239.6603076408629,0.0007887105357521616,0.000379080505596914,0.00040963003015524757
245.10638090938798,0.0003784868124337266,0.0002281909945401899,0.00015029581789353672
247.44309813941422,0.0003114713456507421,1.5394931286624215e-05,0.0002960764143641179
252.49510176758525,0.0002019467620713161,7.050147247610844e-05,0.00013144528959520765
267.16517511003156,0.0007753344885067934,0.0005295754397167038,0.0002457590487900896
269.4560797490447,0.0001168076289906383,7.142788635036133e-05,4.537974264027697e-05
305.8896528902303,0.001601360372476638,0.0005695699598538883,0.0010317904126227496
320.54746616830795,0.0015500252519928045,0.00011931158007403992,0.0014307136719187645
332.20690216421286,0.0007423978447333151,0.0004769656849564743,0.0002654321597768408
368.3066705880324,0.004941399178595365,0.0023946033613933,0.0025467958172020653
369.96790447087943,0.00623687561133498,0.003496239721633814,0.0027406358897011664
373.6707347548087,0.0011842580515904462,0.00017773605947617153,0.0010065219921142747
402.723307247351,0.003905095851550189,0.0025794377794147454,0.0013256580721354432
422.3579021419105,0.002245295984199276,0.0010816704272630952,0.0011636255569361807
458.07554828538076,0.0049013815995275056,0.0022615321540720955,0.0026398494454554105
494.17465429324807,0.0019413050421605905,0.0010152578868983656,0.0009260471552622248
505.0638784008082,0.0010097929373832813,0.00020325678375608417,0.0008065361536271972
556.3911485754826,0.0052403471022725405,0.0011269762666483239,0.004113370835624216
563.955158993587,0.012487018485733702,0.005375097671809805,0.007111920813923898
706.9858242445293,0.007019402070437974,0.002999710402368971,0.0040196916680690035
722.2777747914222,0.0035982711928822355,6.806809520459867e-05,0.003530203097677637
725.5613614685884,0.0022881889052535098,0.00030007635487804934,0.0019881125503754603
736.9727757901151,0.002274079807633642,0.0009629109194325584,0.0013111688882010834
757.1600927979401,0.0011538352575383639,9.528727141452543e-05,0.0010585479861238384
766.6673121053719,0.006842352254703503,0.004485773945707535,0.0023565783089959684
785.3207809125079,0.010305539196037548,0.0098393784413484,0.0004661607546891489
800.6614036041242,0.15212392727425045,0.14301458216727975,0.009109345106970689
810.159192767037,0.007373259617321213,0.006376629033125417,0.000996630584195796
834.2384634330964,0.012236125737038417,0.0005069420162247539,0.011729183720813663
840.5131099700961,0.006696974525798694,0.000678218003022812,0.006018756522775883
877.059650443747,0.0935776018257033,0.058095655583266036,0.03548194624243725
886.4632156508818,0.02305478850924152,0.0037960259712626946,0.019258762537978827
906.8422223825614,0.02121722245462885,0.011183546542300778,0.01003367591232807
911.5337438376412,0.024257447426301183,0.008207165655755841,0.016050281770545342
920.8730250392614,0.037237763837750654,0.021337147392889305,0.015900616444861345
930.2742348915748,0.0033467946786885183,0.00010733246189111578,0.0032394622167974023
939.191489655821,0.006135004526887961,0.0017652446499187898,0.004369759876969171
961.1034764181073,0.005223928119688979,0.0008149028034736292,0.00440902531621535
967.439008274308,0.006706600968598217,1.9359108654920743e-05,0.006687241859943296
976.7341282022251,0.000125354503910444,8.231642009128693e-06,0.00011712286190131529
984.3853973080263,0.031147049698855515,1.285135961643028e-06,0.031145764562893873
995.8914686824554,0.0046708940975235674,0.002935590834640631,0.0017353032628829362
1007.9611425889017,0.014759812319462572,0.0003952862433387646,0.014364526076123808
1022.3547470761622,0.005338343935057958,0.0016383848424446634,0.0036999590926132943
1034.2154352900066,0.005973031474868544,0.0026958562872319274,0.0032771751876366165
1043.7688493641913,0.00629307107709732,0.0029015780039435054,0.0033914930731538144
1053.3792422361728,0.0020287735422648864,0.0002626100825555984,0.0017661634597092878
1067.6532581242475,0.008060540320575054,0.005196126891512539,0.002864413429062515
1074.7342234808934,0.005930704244013348,6.748564986612056e-06,0.005923955679026736
1085.8578245251254,0.037949612855439754,0.00427030168959446,0.03367931116584529
1086.9008180078772,0.0038989576082279886,0.00023093763319662086,0.003668019975031368
1094.4532435672104,0.00313689267525937,3.654816108559549e-05,0.003100344514173775
1108.6528072123622,0.027322375342988665,5.53772989177247e-05,0.02726699804407094
1112.0227030483445,0.010179196421207345,0.0012240827918804913,0.008955113629326853
1121.640564027458,0.039236751587781386,1.6225467072347583e-05,0.03922052612070904
1130.1971544886555,0.012037460345714,0.006615605965216486,0.005421854380497515
1138.6555321804651,0.032261879389565616,0.003655782889628181,0.028606096499937433
1154.1860760618677,0.02038918805746163,0.012692900082919806,0.00769628797454182
1158.7777770908012,0.019428347394020804,0.0048205826318626814,0.014607764762158124
1187.0896958928138,0.013177181182393555,2.0366403778212903e-05,0.013156814778615342
1196.3609665491167,0.01984021576600698,0.009221330445728726,0.010618885320278255
1208.1025654567716,0.0051208534470253125,0.0007978148325402228,0.00432303861448509
1210.6477734970672,0.013188115977179735,0.0036318856044876085,0.009556230372692126
1223.2961210105525,0.010163969989413577,6.7100332000494e-08,0.010163902889081576
1234.6902597325425,0.006020624901376731,0.002864828183563848,0.0031557967178128823
1241.1354407523768,0.002868858264451087,0.0014929057156966383,0.001375952548754449
1258.249628999706,0.0021448480064528114,5.016305938941611e-06,0.0021398317005138696
1273.4795710134574,0.0022086194783841216,0.00022722816557580293,0.0019813913128083186
1279.362765963632,0.0022172880448519425,0.00017339785788170368,0.002043890186970239
1293.5345748019902,0.006293376893437887,0.000732405813690681,0.005560971079747206
1306.813805357233,0.007109050348714323,0.00030240089553926853,0.0068066494531750545
1314.636659396697,0.004743372911026176,0.0009064511760749992,0.0038369217349511773
1316.4794073329588,0.00448928180227022,2.5645531323867297e-07,0.004489025346956981
1318.7945018524085,0.023214622049067882,0.000574856615761883,0.022639765433305998
1326.0295892696995,0.01514173883410891,0.00030816903028670165,0.014833569803822208
1332.9448072597268,0.0349705625259586,0.00024023310035540412,0.034730329425603196
1337.1736871605626,0.08913903379425253,0.0001461270225386396,0.0889929067717139
1338.8128803083116,0.08009507008024898,3.144696928132546e-05,0.08006362311096765
1344.951452012303,0.035109382801923446,2.2720173129071974e-06,0.03510711078461054
1351.5452284364892,0.010637769886575884,0.00026234551557598765,0.010375424370999897
1355.0307490087248,0.021486739936136503,0.002345978210057435,0.019140761726079068
1360.4868412324129,0.010414253196318052,0.0016872643489893474,0.008726988847328705
1368.101547030677,0.01277866800355679,0.0001923909798909987,0.012586277023665791
1372.3677318629464,0.007451644061840936,1.1456893720840846e-06,0.0074504983724688525
1381.3304736451746,0.01133427319886182,0.0021758457297758513,0.009158427469085968
1388.5824164615276,0.0034147923690482206,2.086394544530085e-05,0.0033939284236029197
1394.9769247385257,0.005275541107477492,0.0011488783709963227,0.004126662736481169
1398.9955872589028,0.0016081619195870715,8.755876065849243e-05,0.001520603158928579
1400.029529972182,0.007602573436486752,0.00044303270576806123,0.00715954073071869
1402.7799427396299,0.0013279029641111674,0.00034188540293680984,0.0009860175611743575
1407.6810003973696,0.005734661001110438,0.001656553637592436,0.004078107363518002
1411.5951666468256,0.0017551406845667398,7.671317660363282e-05,0.001678427507963107
1412.2825961742972,0.003275755183409327,0.0010085131009509164,0.002267242082458411
1413.0216137280456,0.0032256348859902454,0.0016889913273904994,0.001536643558599746
1415.973221763308,0.012491599887830706,0.0005284542483986548,0.01196314563943205
1419.0842655928498,0.0032457146814093016,0.00017467739007288503,0.0030710372913364168
1421.1035345543173,0.007172337955092287,0.0011581461604296297,0.006014191794662657
1475.9934254244533,0.07068068277047934,0.003930903824004729,0.06674977894647462
1477.7831697820252,0.04398621343188842,0.00099794123490569,0.04298827219698273
1479.9167145667257,0.04318591495498754,5.871541231053914e-05,0.043127199542677
1480.2197972900797,0.031121978343741634,0.004559981539798413,0.026561996803943222
1481.520920337486,0.017784735038033204,1.3264731131780818e-06,0.017783408564920028
1483.78337314206,0.0877776217625336,0.00047694517969545155,0.08730067658283816
1484.9442866242603,0.011888570680034226,0.0003507945330487427,0.011537776146985484
1487.858768870696,0.014147764258473946,5.2023879239036524e-05,0.01409574037923491
1488.580062613129,0.017259712592420987,0.0006008623348611853,0.016658850257559803
1490.0549600204176,0.028943352897451854,0.0014540120003279434,0.02748934089712391
1493.3125257386682,0.004355305742342043,5.741122848086218e-05,0.004297894513861181
1493.8239905574171,0.026919809724125915,1.51357669359056e-06,0.026918296147432325
1494.0837079384164,0.0029931527750575062,3.9933040132699754e-05,0.0029532197349248063
1495.470362070068,0.003478676983922285,5.356259961937013e-06,0.0034733207239603476
1497.805571707838,0.009248701929291961,0.0004108634378784132,0.008837838491413548
1497.972395406413,0.003709408971964564,1.5791549781363686e-05,0.0036936174221832005
1500.1687317849924,0.00857235586070214,8.283029232918862e-05,0.00848952556837295
1502.4754610925856,0.004272661907685152,4.86801952408266e-05,0.004223981712444326
1505.2599090233534,0.0030269646982776805,1.1659821585400967e-05,0.0030153048766922794
1506.848143594642,0.01566864474032684,0.0013242392700776667,0.014344405470249174
1508.3912263511518,0.03103790749612224,0.00036164736398771235,0.03067626013213453
1510.794929763208,0.008109078354721697,7.745011729079662e-05,0.0080316282374309
3023.5781825771,0.23482639086127882,0.13434182251532853,0.10048456834595028
3024.681484388594,0.8810813105655289,0.8223371354889369,0.05874417507659195
3025.057263478413,0.23418490230943972,0.006817470021444572,0.22736743228799516
3027.136552539679,0.8318608041704793,0.7398221605251885,0.09203864364529078
3027.587914353239,0.47558087150095557,0.35268312046331257,0.12289775103764301
3034.4387933508037,0.406855358244163,0.3039042694409397,0.10295108880322335
3036.2042359511584,0.1712933803203018,0.003549367852639333,0.16774401246766246
3037.709646744082,0.09223958345093711,0.06906944834081163,0.02317013511012548
3038.804360757798,0.47440847227950744,0.3323441302427974,0.14206434203671003
3041.4174438303453,0.25598766049535226,0.18758133725120257,0.06840632324414968
3041.5909431219757,0.2995700313606213,0.11061290706232915,0.1889571242982922
3045.0270182706636,0.48179868588891994,0.3286462752315932,0.1531524106573268
3047.604024695334,0.654185165153365,0.40385946639912934,0.2503256987542357
3048.9422885167123,0.0326265248272137,0.013451003781615328,0.01917552104559837
3049.8747396804497,1.0050396883400716,0.9749570801053975,0.03008260823467406
3050.7105466011735,0.5496964526374383,0.00011652303271711132,0.5495799296047211
3051.2088205008286,0.6875336550638019,0.5320070358195271,0.15552661924427483
3052.4975765615445,1.2958661467300043,1.1871294761718556,0.10873667055814869
3056.582742223302,0.26118949206172404,0.11399490405545243,0.1471945880062716
3059.208545132013,0.47346064148083866,0.3832629184691551,0.09019772301168358
3061.886939191435,0.11352106989614438,0.05685974303804065,0.056661326858103725
3063.026747592528,1.8390603586149183,1.8143126480594045,0.024747710555513856
3070.060414132417,0.49496653709898625,0.1443018759833542,0.35066466111563205
3071.328544089879,0.8802579284956714,0.6514291234585449,0.22882880503712652
3073.095104796591,0.14582968719223321,0.10428818195089976,0.04154150524133345
3075.0990111766573,0.20024599977892935,0.006749596798169427,0.19349640298075993
3078.7752456988555,0.1849534010011855,0.014208698655970357,0.17074470234521516
3080.81828568587,1.409843921946456,1.0224369901620713,0.38740693178438457
3083.2048135604587,0.2918415236785019,0.10283513471681567,0.18900638896168626
3087.0761346428544,0.36471384543372903,0.13204455489217606,0.23266929054155297
3090.6130045171853,0.07734083352191623,0.0240863861621834,0.05325444735973282
3092.411727486635,0.05209042196209407,0.013362047810586059,0.03872837415150801
3096.391634759084,0.024887636152679783,0.0011117279555769527,0.02377590819710283
3100.006498416021,0.0484286709646154,0.0022989769407671594,0.04612969402384824
3103.0113781233063,0.06829576493962858,0.002124107708452699,0.06617165723117588
3106.743324422452,0.13782653371176654,0.06124879206900636,0.07657774164276018
3112.9940985560506,0.1320145389748472,3.286629649857426e-05,0.13198167267834862
3113.7719568930725,0.16710969037036127,2.1734582138050647e-05,0.16708795578822322
3115.3421431747797,0.1549877714238556,0.00133029676158935,0.15365747466226626
3116.527009691463,0.2750579699029456,0.009982454585610196,0.2650755153173354
3119.5346207655793,0.41475593323610044,0.05494240259254429,0.35981353064355615
3120.800117775598,0.40269517981034414,0.05846266951476966,0.3442325102955745
