frequency_cm1,total_intensity,isotropic_intensity,anisotropic_intensity
2.437826032039288,0.0,0.0,0.0
1.4422365740871962e-05,0.0,0.0,0.0
1.7820552730194563e-05,0.0,0.0,0.0
2.840958095436287e-05,0.0,0.0,0.0
1.4690914370694814,0.0,0.0,0.0
1.635053962783231,0.0,0.0,0.0
2.9927415500140295,0.0,0.0,0.0
21.951031352639205,0.0017963203433972509,2.0332847129211924e-07,0.0017961170149259588
40.41254859698287,0.0008412410758981434,6.08309935486564e-07,0.0008406327659626568
51.88670789117899,0.0006511583143248794,2.420431114569094e-06,0.0006487378832103103
57.65103470116048,0.002516115254826398,6.738974674450158e-05,0.0024487255080818966
67.71339716199655,0.002139258440973873,5.126902031921098e-05,0.0020879894206546623
71.85915359129102,0.0011846506462045055,3.121678091813241e-06,0.0011815289681126923
85.01229923843125,0.005376414485856432,0.00011864559349527102,0.005257768892361161
100.53004137769288,0.0005438180099960892,9.088897085478413e-08,0.0005437271210252344
127.48834993170836,0.0021708050382172107,0.0008191665523282133,0.0013516384858889975
184.5565384181771,0.004100747563398984,0.0009311385287431692,0.0031696090346558146
216.6008963424631,0.0025128784308528513,0.00033108038975203965,0.0021817980411008115
233.0910399270902,0.0009619455719144625,0.00015584035008192794,0.0008061052218325345
238.50828128710694,0.001878576915194982,0.0017481463202240032,0.00013043059497097872
250.8441455231813,0.0007582010160127257,0.0002910427579447965,0.00046715825806792924
256.81830390881987,0.001674336968619915,0.0003726985064688805,0.0013016384621510344
259.1609822952404,0.0021776956274907142,0.0019561137613014886,0.00022158186618922543
284.9159176291147,0.0037650612057764875,0.0026320838009670595,0.001132977404809428
336.24591823741696,0.006888815233076178,0.001719232109738264,0.005169583123337914
353.06554707929695,0.013998053547209111,0.008575321082026974,0.005422732465182138
416.36872034405354,0.004273712339189581,8.528821528884674e-05,0.004188424123900734
451.9744327560994,0.009669955766493946,0.0033822532626248546,0.0062877025038690915
465.15378963282706,0.023854990602153733,0.004280484558707912,0.019574506043445822
566.3680195555194,0.005405049232520482,0.0002835883651944971,0.005121460867325985
601.0702035040792,0.011984490885137578,0.0004939448825940057,0.011490546002543572
626.6673264346888,0.008079018926701601,0.0025233444567203138,0.0055556744699812866
732.110283881298,0.003945486647958413,0.0005526627361811099,0.0033928239117773035
761.2514937774308,0.009114720893144803,0.003239621152728379,0.005875099740416424
820.5349161383596,0.002262247327803144,0.0009393677629895354,0.0013228795648136083
822.091721333249,0.0015429911429226222,2.3737409615401205e-05,0.0015192537333072209
843.9949233689568,0.016942408872836413,0.007966531234987508,0.008975877637848906
869.3200063917228,0.06711537752037414,0.03946162731505867,0.027653750205315464
877.3128971303938,0.015182507404813302,0.0105445669267143,0.0046379404780990015
922.2164830373781,0.022972291542276205,0.0008993093907483734,0.022072982151527833
933.015242001877,0.05212402542123159,0.03485449704022651,0.01726952838100508
983.9410725796301,0.025616491675256807,0.011239624202358172,0.014376867472898635
990.1692112688248,0.002305003238608435,0.001360259360378016,0.000944743878230419
1045.858405060322,0.008613658157151701,3.911345780000335e-06,0.0086097468113717
1052.1446599640442,0.04848744130043768,0.020908104431219324,0.02757933686921836
1076.6359254837805,0.03391254620087992,0.005791087884670384,0.028121458316209533
1098.7281983987916,0.024920536845971047,0.0015969871201076383,0.02332354972586341
1125.2426356402998,0.06726205583238712,0.024213362755793152,0.04304869307659397
1131.782508539376,0.014626254773847717,0.005565621507363412,0.009060633266484305
1139.2692646915148,0.012624649874310924,0.004053005776127438,0.008571644098183487
1144.4424732765701,0.012727776280245597,0.002854891335650586,0.009872884944595012
1155.9518753444165,0.022528559248525835,0.016098814535540032,0.006429744712985802
1165.4932887607476,0.02720880297185169,0.014019545276986387,0.013189257694865304
1182.5972661406486,0.0021685447767312437,0.000235815501839837,0.0019327292748914067
1184.7774422950943,0.007553825016223568,0.0018761071368680858,0.005677717879355482
1212.2952301064067,0.020239416045804245,0.007888883830653231,0.012350532215151012
1221.8824130024582,0.009852243094640691,0.006099269248475736,0.0037529738461649564
1268.7486385539783,0.014307973097621062,0.006519416255244957,0.007788556842376106
1296.2683957538602,0.021953758784945158,0.00019907885764335834,0.0217546799273018
1305.9180226401845,0.027885270508528112,0.000507702580246991,0.02737756792828112
1309.1562647334347,0.014127011387757654,0.0018039684585775136,0.01232304292918014
1312.433937735219,0.009449352501912898,0.0006656727348279413,0.008783679767084957
1334.6946846294184,0.02496587718515504,0.0016377606849430422,0.023328116500212
1347.0820646346622,0.04405476318119342,0.001143176332526433,0.042911586848666985
1358.6863036626714,0.014171400667499005,0.0007470358821268035,0.0134243647853722
1378.5062985205075,0.026166180596762716,0.01002185827045558,0.016144322326307137
1398.756377988668,0.07445226272926551,0.02148466074436897,0.05296760198489655
1401.6355225488423,0.004412903557320791,0.0003334264248254449,0.004079477132495346
1404.4832668349527,0.005275633447048237,0.00044652548779918003,0.004829107959249057
1407.5251318083294,0.002847273032826922,0.0005765091189445932,0.002270763913882329
1413.4238078744274,0.0009499563566644452,0.0008353042982385308,0.00011465205842591442
1434.6363554303489,0.005794478526291034,0.003386364382647009,0.0024081141436440253
1443.2080369936446,0.01231753397986629,4.4281199658499794e-05,0.01227325278020779
1473.096470771591,0.03377625866176375,0.00017590045431217948,0.033600358207451574
1480.1425749005637,0.029048006718200403,3.853797851881088e-05,0.029009468739681594
1480.2739774645067,0.030152787891188648,2.7126027934135066e-06,0.030150075288395233
1481.626050700253,0.0484123471113827,0.00021246827585379648,0.048199878835528905
1490.2303625418085,0.020222109115616588,0.001979169441448518,0.01824293967416807
1492.2280659792893,0.03656379374169427,0.01054129186924413,0.02602250187245014
1494.425482904591,0.031203097397514725,2.9180214724065e-05,0.03117391718279066
1494.4460786522247,0.01995817452616895,0.0034482389150036425,0.01650993561116531
1495.3158305736401,0.044837399059736736,3.8053188641961904e-05,0.04479934587109478
1503.2813510152846,0.005194096720973021,0.0004135019436209764,0.004780594777352045
1519.3339648377141,0.008733516582530219,0.0011060284165812441,0.007627488165948975
1521.7573240749216,0.023412788375853436,0.0003470379803400364,0.0230657503955134
2410.0050500220527,2.181943637571575,1.2184759135710053,0.9634677240005698
2937.5270241735643,0.3128274711834863,0.2027529670125021,0.11007450417098424
3005.4622787224334,0.4433849951605327,0.3690374906534264,0.0743475045071063
3016.1987803723014,0.5393152924499116,0.4196982150743453,0.11961707737556632
3029.4715368657053,0.6605957413091724,0.5491347698106785,0.11146097149849388
3044.4856515218917,0.19088781333496505,0.16160326866223468,0.029284544672730367
3052.1526832194486,1.0492064577799691,1.0346090379653976,0.014597419814571466
3053.667250211947,0.2152328348077107,0.00010451343359784238,0.21512832137411284
3053.8229928829464,0.6989116251142029,0.38715398317593996,0.311757641938263
3063.1617919117934,0.7559023745961475,0.6501930075316186,0.10570936706452898
3067.8726234248006,0.8208634830697098,0.8045175919844485,0.016345891085261317
3067.9348719121394,0.26779588462406506,0.012462189135355203,0.2553336954887099
3068.7307350191277,1.094324869797156,1.0777575972149005,0.01656727258225533
3085.620902632016,0.0775966130615964,0.03625338838516992,0.04134322467642648
3087.186315265447,0.3608611865793866,0.1461241078432143,0.21473707873617226
3095.3263665473537,0.5118500570126759,0.1377626760417729,0.37408738097090305
3114.811407875074,0.08905072556932592,0.005722270677506318,0.0833284548918196
3116.1252364566517,0.10066238870070436,0.0012220179685103554,0.099440370732194
3124.8762433364295,0.39292652707591313,0.05343380937018531,0.3394927177057278
3138.451607648494,0.291383495110828,0.0040961855869107115,0.2872873095239173
3141.3159047573486,0.32384659655553655,0.010520991619238194,0.31332560493629835
3146.7309582952757,0.10525395657161382,0.0004345699922821327,0.1048193865793317
3146.8032824112993,0.22754510607350414,0.0005752101600469717,0.22696989591345718
