frequency_cm1,total_intensity,isotropic_intensity,anisotropic_intensity
1.575556440800608,0.0,0.0,0.0
1.0195494633352946,0.0,0.0,0.0
1.0014566905500057,0.0,0.0,0.0
1.3294646342396607e-05,0.0,0.0,0.0
2.6181216818449305e-05,0.0,0.0,0.0
2.9269529576356814e-05,0.0,0.0,0.0
16.860027178784193,0.00016688292335428765,5.648009236900962e-07,0.00016631812243059755
25.509322769675393,0.0007991748325215448,1.8712950011873285e-06,0.0007973035375203575
27.797837626046793,0.00021823378895255305,4.063127294149074e-07,0.00021782747622313815
46.77922940302679,0.0005058926728052322,2.7131386298272032e-06,0.000503179534175405
62.88757647510791,0.00019868863537220735,3.3647101778796434e-07,0.0001983521643544194
68.90190272194788,0.0008495827230496304,7.496601599986522e-05,0.0007746167070497651
82.47746099850222,7.196959969221581e-05,1.2113305382745166e-05,5.985629430947064e-05
96.95286267526626,0.00012305972711482274,1.3417458793117614e-06,0.00012171798123551099
110.88755332087872,0.0002460582647718623,7.612560016560841e-05,0.00016993266460625393
131.07923175576067,0.0005541673433888386,0.0003835668195760241,0.00017060052381281452
141.3638376420975,0.0005020727112703743,0.0003733481260799201,0.00012872458519045413
157.29222135397964,0.00033077940898987356,0.00025454299135378787,7.623641763608571e-05
161.29797349336408,0.014285099106562718,0.009141136983771905,0.005143962122790812
169.23788742139908,0.0004973983898763053,0.0003677017267839843,0.00012969666309232096
174.8570577153563,0.001934844019678944,0.001415884045984938,0.0005189599736940062
224.41272861435533,0.00044493932113386493,9.443883677325345e-05,0.00035050048436061147
237.76409213925797,0.001690997222588482,0.0010771425069555818,0.0006138547156329003
246.32723549211656,2.130670374900132e-05,9.95840932993984e-09,2.129674533967138e-05
259.49538210174484,0.0017610476430695615,0.000570209877482927,0.0011908377655866346
290.76864509627757,0.00404820096726238,0.000717056076342719,0.0033311448909196604
310.37054365549284,0.0017761606770791932,0.0004950960569799757,0.0012810646200992174
341.37799705246397,0.0011169131507296536,0.0009437501658689407,0.00017316298486071295
396.252800654258,0.0026197640254377024,0.0018899080132181681,0.0007298560122195343
435.230113148482,0.00115700797973708,9.664018410267929e-05,0.0010603677956344006
468.68623348720917,0.0034735177307735044,0.0027829450108638023,0.0006905727199097021
487.0981576905183,0.0018716891201022573,0.0008105445243752053,0.001061144595727052
529.8205971440156,0.0015139353494726885,7.143433867572934e-05,0.0014425010107969591
536.7434823811783,0.0013482518978785256,0.0001710428663979836,0.001177209031480542
728.033180007274,4.084902613160992e-05,1.641666548664894e-06,3.920735958294502e-05
729.202406441625,0.00020121301819131914,2.007784159584346e-05,0.00018113517659547568
734.0640457763371,0.0003616221225944156,0.00013155732251733223,0.00023006480007708337
747.776596809842,0.0012599668544149,0.000647679344981973,0.000612287509432927
772.7368195785851,0.008691879740327077,0.006957863262766513,0.0017340164775605637
779.0476748249904,0.005223000050480877,0.004560100494727258,0.0006628995557536178
813.052897133401,0.005892145447410324,0.003503757181135799,0.002388388266274524
851.2419447244395,0.016508690372770418,0.011532537379715144,0.0049761529930552745
889.5728187613593,0.00802663295470445,0.006113627768818729,0.0019130051858857208
908.3104502330367,0.03427834381010253,0.02109437138726192,0.013183972422840605
940.4524575962533,0.0020224355186311913,0.0010421689955756473,0.0009802665230555438
991.5852613262426,0.0012027406640216496,0.00011201320002805906,0.0010907274639935906
995.544691633168,0.023258865610402985,0.0006380851233317602,0.022620780487071224
1009.6854380024298,0.001550455067613367,0.0002193256400059407,0.0013311294276074264
1013.2960812100113,0.0015468094845911458,2.586817513290276e-05,0.001520941309458243
1035.6829536931361,0.0009732190610046161,3.88144115180523e-05,0.0009344046494865638
1041.5558019178075,0.011767395593894805,0.007706496470530197,0.004060899123364607
1044.2914084919687,0.0015976890030923675,5.1150195187948605e-05,0.001546538807904419
1063.3550005229558,0.005575161132329074,0.004953895053972529,0.0006212660783565451
1066.406143395701,0.004719042971753892,0.0005061826367755486,0.004212860334978343
1074.8215951879279,0.0076072555488217305,0.0035012463808587546,0.004106009167962976
1087.8690242848083,0.05483066614109171,0.00013309290023848472,0.054697573240853226
1090.140726797079,0.038135059184374244,0.0002063628552554135,0.03792869632911883
1091.4854869233898,0.002046690562569092,0.0004283092335542395,0.0016183813290148524
1098.5749901531344,0.008870414516218235,0.004209409247453835,0.0046610052687644
1107.9618155439566,0.09680404474614805,0.03945042547880364,0.05735361926734441
1137.89014219177,0.007692403559550397,0.003129984626477682,0.004562418933072715
1156.495943722158,0.20167036433929486,0.11654482769854405,0.08512553664075082
1188.4642496477438,0.012838987790942532,1.1428851403272672e-05,0.012827558939539258
1207.9115026560926,0.00754055669656797,2.3099247314387098e-10,0.007540556465575497
1222.1625921355128,0.003407052248324914,0.0013290560371926993,0.0020779962111322145
1233.463327272478,0.0010719453960792826,0.00025573969319669406,0.0008162057028825885
1251.0399821254432,0.003973315873994939,8.993449806318482e-05,0.003883381375931754
1262.7619250958512,0.00035198074026555296,1.0767109471969516e-05,0.0003412136307935834
1272.8004208509994,0.008158581447546148,9.606231982925282e-05,0.008062519127716895
1289.1113288658744,0.005864313502922455,0.0005781473187547934,0.005286166184167661
1292.260268665522,0.00247190542606794,0.00014021568884571984,0.00233168973722222
1307.3004803081724,0.004846074176889394,0.0016121672558727699,0.003233906921016624
1315.9978315323788,0.004203645818253063,0.00022150300621221085,0.003982142812040852
1320.5351160628868,0.0021583030483643246,0.00045567139265580197,0.0017026316557085224
1325.579376895394,0.11370320266866471,8.535497140719354e-05,0.11361784769725752
1328.4461587265685,0.013658699012567341,2.2302014598614494e-05,0.013636396997968727
1333.1245369874175,0.000573705760373338,8.393257902248679e-05,0.0004897731813508512
1336.5207454324893,0.0012396189743011181,5.084006496378319e-05,0.001188778909337335
1338.318470085812,0.005179688467843126,7.2458583053113e-05,0.005107229884790013
1345.305887274606,0.021105337365530115,2.1840766869815307e-05,0.0210834965986603
1352.5478109646806,0.004677175899359895,1.554693647318566e-05,0.00466162896288671
1377.0249504492363,0.004291824448442109,0.0003679194219448495,0.003923905026497259
1393.9891159367546,0.010739277571651856,1.0245497792676018e-05,0.01072903207385918
1406.150539279819,0.004177827774548132,3.1578937983564353e-06,0.004174669880749775
1411.167874540726,0.00226793030154072,1.783098050705143e-05,0.0022500993210336686
1412.5816587102881,0.0013183600714622005,0.0007693077805598622,0.0005490522909023384
1416.4230084779874,0.006874697433259666,1.5208697497070235e-05,0.006859488735762595
1420.8305460805257,0.00844540234673364,1.535687939748072e-06,0.008443866658793892
1421.1774703621597,0.0010426360923169909,2.409662294240734e-07,0.0010423951260875668
1441.4752092428491,0.014169282005147924,0.001081997170637821,0.013087284834510103
1476.0957156705724,0.018511326868741868,0.003392689357290135,0.015118637511451732
1480.5623814738617,0.0009150699483148293,4.303498331953466e-05,0.0008720349649952947
1480.747966931094,0.0024327652601401914,0.000518394143641582,0.0019143711164986096
1483.2858294933092,0.0036817064218419423,0.0005454697020815074,0.003136236719760435
1483.4641350097256,0.038510459927826285,0.0037690025808205796,0.034741457347005705
1485.5888709195729,0.19932290523661111,0.009845751360255929,0.1894771538763552
1487.2412262948492,0.00026053019639171867,2.659679845892015e-05,0.0002339333979327985
1490.9494084146631,0.0032290329666050774,5.0090553883642615e-05,0.003178942412721435
1491.6057055335812,0.02396144023661749,0.0005531466415024316,0.023408293595115058
1493.768829740876,0.027071394213615728,1.036219956908754e-07,0.027071290591620036
1495.8760230037992,0.00110989642783943,3.668718259993146e-06,0.0011062277095794369
1500.5180340059942,0.0032091124095451826,4.824908210879185e-08,0.0032090641604630736
1504.26726767309,0.0023335376023820302,0.00011869696997719088,0.0022148406324048395
1506.2953037360435,0.003396716965179435,1.6711107707779793e-06,0.003395045854408657
1507.1319119815516,0.021074382017746182,0.00042498989807253693,0.020649392119673645
2982.594029677419,0.378564922685609,0.2261844149349199,0.1523805077506891
3021.5826430365305,0.07139409374298497,0.06596748809996583,0.0054266056430191355
3022.301605546837,0.013231050354729077,0.010486643056771007,0.002744407297958071
3023.727888524537,0.08196839650072588,0.07211461411101569,0.009853782389710188
3024.4836216121175,1.8010843319260454,1.7655444256178459,0.03553990630819952
3026.963683284748,1.7632044023695705,1.7040204170547206,0.05918398531484985
3029.3909726380243,0.14464524587729743,0.12127571703569287,0.02336952884160457
3033.998217185344,0.24112855291238244,0.2100127637964199,0.031115789115962543
3038.198334972924,0.06826636681509923,0.05609499624965536,0.01217137056544388
3041.0224923792694,0.3946872144162662,0.364342845563633,0.030344368852633193
3043.3130115839567,1.2399593088201875,8.556869298511872e-05,1.2398737401272024
3045.2307459292697,0.012334115775520996,0.003961707184180773,0.008372408591340223
3048.423895759724,0.8738199622805548,0.8652533326873818,0.008566629593172968
3049.643781613969,0.37296846079742707,0.21245007096932833,0.16051838982809874
3049.6703755541434,0.7897369313256015,0.7035291505180519,0.08620778080754966
3052.252604028632,0.2808760671305238,0.2675661501879569,0.013309916942566974
3056.3522998229987,0.024611724465892063,0.005418416463729711,0.01919330800216235
3059.4600695909776,0.40995344201184714,0.31529622962479253,0.0946572123870546
3063.8670280432007,0.23549923148794555,0.09680806208065033,0.13869116940729523
3071.0385019245045,0.04349264866079465,0.03833297379151892,0.005159674869275727
3077.826700687333,0.14144879120579157,0.019029595505463875,0.1224191957003277
3083.722295224681,0.014538730826868032,0.007340755627466563,0.007197975199401468
3088.77537518682,0.022236006813418925,0.0009136987714332852,0.02132230804198564
3096.324747105134,0.4484673288664831,0.043047511130561406,0.40541981773592173
3100.9856477266885,0.05763109211962369,0.0010619129134160168,0.05656917920620767
3112.680141948111,0.12905689430321682,2.902109825049897e-07,0.12905660409223432
3117.0954764600915,0.028178778339783373,0.00827788920389528,0.019900889135888094
3120.6149192435664,0.4087643125790321,0.06179032142960767,0.34697399114942445
3126.042570260694,0.3973370579974992,0.10734782657333788,0.28998923142416133
3877.0448054936537,0.3573599952612764,0.2418931914704157,0.11546680379086068
