frequency_cm1,total_intensity,isotropic_intensity,anisotropic_intensity
2.1176728651956,0.0,0.0,0.0
3.119863757409159e-05,0.0,0.0,0.0
2.0687077939147805e-05,0.0,0.0,0.0
5.684493027607717e-06,0.0,0.0,0.0
1.4985028725774805,0.0,0.0,0.0
2.20971765043526,0.0,0.0,0.0
13.460892319308519,0.0006692289183472852,1.6516173973898556e-05,0.0006527127443733866
26.249117295530723,0.001581112376509124,3.7846135255741635e-05,0.0015432662412533822
53.795849521340436,0.0003465178582491401,3.928796620165338e-05,0.0003072298920474867
61.68781186997183,0.0013586164922524758,5.495907935202171e-05,0.001303657412900454
74.79413012488224,0.00037556448965221867,8.16492600969304e-05,0.00029391522955528825
107.05783255164826,0.0006874916023740484,0.000273381108653028,0.0004141104937210204
121.81586733274794,0.0009500533064154641,4.0088654626494206e-05,0.0009099646517889699
158.9855727718443,0.0009432344747630226,0.00046988041787899204,0.0004733540568840305
223.17480807307484,0.002652088128518637,0.0013547176918635487,0.0012973704366550883
233.6578642925788,0.00032637211345049326,1.758587372351645e-05,0.0003087862397269768
240.758752590807,0.0009169245697867206,0.0005716742790999434,0.0003452502906867771
253.08299106047744,0.001485818918216653,0.00010271695434351988,0.001383101963873133
256.1011471874867,0.00202281374116886,0.00019632815665356735,0.0018264855845152924
268.9911744022306,0.0013906406318492225,1.7826100735445456e-05,0.001372814531113777
296.9159774773893,0.008565529208165654,0.007058632965575705,0.0015068962425899492
356.8296490022057,0.002501368947618844,0.002026226318604017,0.0004751426290148269
363.84338084656923,0.0024070695347094247,0.0010599509870510273,0.0013471185476583974
414.82862737404025,0.0033259570348558934,0.001286767825366834,0.002039189209489059
442.5729155438785,0.003493885613166432,0.0010590743867831362,0.0024348112263832956
452.25943040653976,0.006228994915421367,0.0049845918870156,0.001244403028405767
506.99709067943616,0.005717409472386227,0.0025976648153082857,0.003119744657077941
540.6709089235605,0.001177246546664455,0.00038933630147110047,0.0007879102451933546
724.4486108046325,0.0039301039585664084,0.0009256700347592566,0.003004433923807152
748.4885620813315,0.019382249433196372,0.016906086026727198,0.002476163406469174
751.5440854633367,0.014963131051109291,0.007546684121530762,0.007416446929578531
796.0423130813144,0.015811214821768674,0.008918391080764391,0.006892823741004283
814.646712786113,0.09425425962830783,0.09064910040252201,0.0036051592257858147
854.476222047932,0.009557755084346612,5.463280398821159e-05,0.0095031222803584
870.236911017994,0.0033412048231649437,0.0004479407920099088,0.002893264031155035
901.5379458729732,0.008091138985682833,2.7221744770522132e-05,0.008063917240912311
912.3858833539238,0.023550033070135288,0.015097314986150391,0.008452718083984897
948.9798229292372,0.006986739252900474,0.00021246176692141914,0.006774277485979054
959.4184238393053,0.013882285297565158,0.0020127393881167713,0.011869545909448387
987.1957810669397,0.011604769644439494,0.0005999659626132214,0.011004803681826273
1015.2874846251746,0.021451370674195447,0.006210780254780076,0.015240590419415372
1029.6436497557897,0.0044481400432490855,0.000365977549342468,0.004082162493906617
1050.0026583480235,0.022111592309506743,0.0015048198680618762,0.020606772441444866
1071.311541033369,0.02048372470956476,0.01593212331044811,0.004551601399116648
1080.4435077157848,0.002346822700460654,1.9184048929590743e-06,0.002344904295567695
1089.4555424267626,0.01348054988781677,0.00032515507027120556,0.013155394817545563
1103.3226775691066,0.017679642164152087,0.001015735377257875,0.016663906786894212
1117.868331670823,0.045149927915731226,0.002254131253401057,0.04289579666233017
1133.9909915115857,0.005112687591752828,0.0003696000477095736,0.004743087544043254
1154.142772876191,0.008823835541387912,0.001795002247475495,0.007028833293912417
1158.002289638032,0.0078890966511423,0.0015795092422979746,0.006309587408844325
1186.6800626333973,0.011035556007269355,0.0006118321935771879,0.010423723813692167
1216.5066948123542,0.012575651204853402,0.005151178545831122,0.007424472659022281
1233.232235219345,0.019023572436439408,0.009962372683873646,0.009061199752565764
1251.4168205090562,0.0052563150979179985,0.000423898081267065,0.0048324170166509335
1293.986352363023,0.0033737055899139856,0.0003542802316510674,0.003019425358262918
1301.158240722804,0.008166668579373149,0.0008226568820310495,0.0073440116973421
1308.5470675082504,0.014382212420137024,0.0006284258864467576,0.013753786533690266
1325.4978503544808,0.012661490304607583,0.0009130926665161573,0.011748397638091426
1330.379032765775,0.014903067437603456,0.0007967227318369136,0.014106344705766542
1338.1064004636607,0.044046953047291566,0.0014235876015888955,0.04262336544570267
1342.8885039639226,0.03659766512307222,0.0002594387059986321,0.036338226417073585
1367.8759086144446,0.0002265087559186422,2.491305078048389e-05,0.0002015957051381583
1379.062136802449,0.0035914932406137536,0.0003296152432624439,0.00326187799735131
1384.529156230729,0.00932268638340707,0.0007103119009884471,0.008612374482418623
1399.104371648791,0.0017457913468455263,1.4968422372940884e-07,0.0017456416626217969
1402.2644825835362,0.006933649624774705,0.0012268152080476757,0.00570683441672703
1403.8365823500383,0.002425824540344607,0.00017736719716983682,0.0022484573431747704
1407.1928903832695,0.01409428303331483,0.0030802299376165724,0.011014053095698256
1411.4735471407982,0.003533390989160959,0.0002150542346602983,0.0033183367545006606
1418.4862050293561,0.0039410575089201,1.0903563996081642e-05,0.003930153944924019
1421.6515756725714,0.027935160077264137,0.003693207134060441,0.024241952943203696
1471.1679829475418,0.006768598631169803,5.3541473660960986e-05,0.006715057157508842
1478.7357806485488,0.04178139191308832,0.0003493064360907589,0.04143208547699756
1481.3336051665037,0.04446062704387261,0.0002869920908416687,0.04417363495303094
1482.1589240310836,0.03130322111158151,5.722357825589681e-05,0.03124599753332561
1486.1911038293,0.01943230235867522,4.602143301649719e-05,0.019386280925658722
1488.262156019843,0.02345898224620541,0.00016852498860650696,0.023290457257598905
1491.6280050600878,0.02527651340343609,3.385797251468411e-06,0.025273127606184623
1495.0986617424421,0.014329668955525673,0.0001103648944150341,0.01421930406111064
1498.7658507285473,0.03909200029082273,0.0009631403689806027,0.038128859921842125
1503.7198384890655,0.01477513425322781,0.00013328563393459787,0.014641848619293213
1504.5981187310117,0.003003652416462456,0.00043863109038640835,0.0025650213260760475
1509.5808619519812,0.004375477310544741,2.1703460204208392e-05,0.004353773850340532
3012.557408777808,0.33493145370977295,0.26834749434362803,0.06658395936614489
3020.8815714873854,0.7238963724611964,0.5603241761771193,0.1635721962840772
3031.8276543301113,0.11557646933298067,0.09019964167726169,0.02537682765571898
3034.8592384045937,0.21456056717793637,0.009179905714296045,0.2053806614636403
3038.554115171433,0.613214143554236,0.4545035124007845,0.1587106311534514
3041.5688240449554,0.10726185016735244,7.0635823303164e-06,0.10725478658502213
3043.0402203738718,0.27973286412576653,0.012700398462831755,0.26703246566293476
3047.61434248526,0.7877611490714357,0.743795924120774,0.043965224950661685
3049.2409542741966,1.443974868031701,1.4058454272231753,0.03812944080852578
3056.305977709526,1.1117811678308718,1.038224650660632,0.07355651717023977
3059.808354852067,0.13975207986621652,0.0003383278960858463,0.13941375197013067
3069.189134150796,0.19729740768714576,0.006019372728621601,0.19127803495852416
3070.7874358405684,0.5234927685857148,0.15673560909944964,0.3667571594862652
3076.313207766378,0.21969028126755621,0.09602969223367709,0.12366058903387912
3077.706509731056,0.3672819833377339,0.2739296663936312,0.09335231694410266
3080.463298114375,0.8499634372749563,0.5332562067282213,0.316707230546735
3084.801596495278,0.2654861226425105,0.03520001985710583,0.23028610278540462
3090.0590400602905,0.09968357645760997,0.0014658223858574515,0.09821775407175252
3113.9673060016917,0.33445876178631556,0.05783770613461431,0.27662105565170125
3116.1305134205577,0.35338912635616737,0.1614994280454284,0.191889698310739
3129.6547697235924,0.09135125491860938,0.06380362340469309,0.02754763151391629
3143.0001805577663,0.3203914931962377,0.02498561308844128,0.29540588010779645
3145.5417384179464,0.08803454610655491,0.007811818639564165,0.08022272746699075
3850.4451920491647,0.2426601298304093,0.18362809320010393,0.05903203663030536
