frequency_cm1,total_intensity,isotropic_intensity,anisotropic_intensity
3.0038922811417026e-05,0.0,0.0,0.0
1.6494438188117174e-05,0.0,0.0,0.0
1.674232004465067e-05,0.0,0.0,0.0
0.06647214098370367,0.0,0.0,0.0
0.9294983732070767,0.0,0.0,0.0
2.218806199492468,0.0,0.0,0.0
18.04612390727749,0.002039366337220593,1.1810304755794538e-05,0.0020275560324647984
27.82079664807771,0.002084359684179113,2.073191067926982e-06,0.002082286493111186
34.06266956940219,0.0006273843868914931,2.4962274303321816e-05,0.0006024221125881712
42.04798834797608,0.0003257965624348928,3.987338661163735e-05,0.00028592317582325547
71.93186186098593,0.0003983060107900903,7.027533012008285e-05,0.00032803068067000743
77.80307421503365,0.0004404094103992069,3.2290423926079114e-05,0.0004081189864731278
91.6180723139542,0.00020077677788226138,2.1702490319560134e-05,0.00017907428756270123
100.81447072095995,0.0006318837716760922,0.00019116823756540587,0.0004407155341106864
121.70827833941927,0.0005690454341986113,0.0004096090808789783,0.00015943635331963304
128.09426802333638,0.0001417913775481595,7.473082878018573e-05,6.70605487679738e-05
151.67922428239055,0.00421207478116085,0.0029457428376149734,0.0012663319435458767
163.6052068373344,0.0018646187128948046,0.001279268504729444,0.0005853502081653604
166.02559265520168,0.0010791676137521153,0.000639130381402214,0.00044003723234990126
171.33933606041538,0.000895981197185696,0.00025850164496207654,0.0006374795522236194
192.62813583730355,0.0005234573752737547,3.976543623375697e-06,0.000519480831650379
211.54938502998215,0.009397367523653504,0.006538514176975701,0.002858853346677804
243.867222595897,0.0021442363525494474,1.1618523431240804e-07,0.002144120167315135
246.2593420434455,2.260161917548138e-05,1.0181299495041516e-06,2.1583489225977227e-05
253.4214553474546,0.003273447215113143,0.0008002234337524031,0.00247322378136074
274.1606760296978,0.0027446410048230724,0.0006160795457066999,0.0021285614591163727
327.54231330221637,0.003838959543145929,0.0019879776665849367,0.0018509818765609924
353.7035902424932,0.0024387077722058236,0.0017031345186497675,0.0007355732535560563
397.59029647612124,5.685449861448016e-05,4.677535235265273e-09,5.684982107924489e-05
436.5240733187244,0.011443441602742644,0.006656530096826355,0.004786911505916289
456.7148356071027,0.005388629815380902,0.0046991896423246235,0.0006894401730562787
477.97454060010017,0.0007933009830076817,0.0004462919784793279,0.0003470090045283538
498.4002417908509,0.0020505612975404114,0.0016139037088778877,0.0004366575886625236
610.255135673176,0.006058149643917175,0.0005338368745777995,0.005524312769339376
728.3317866433315,7.433856504033575e-05,3.13690659488924e-05,4.2969499091443346e-05
730.4342730453034,0.0005688219847386411,0.00018121031022808723,0.00038761167451055386
737.1446097440214,0.0005583231420140786,0.00024223907663591194,0.00031608406537816664
754.4394737343634,0.0016989439399530467,6.523602579443656e-06,0.001692420337373603
756.8202738043193,0.0011737488466557844,0.00037004256737732926,0.0008037062792784551
795.0122051378205,0.0014499195498849124,0.0009024695011199661,0.0005474500487649464
839.9241571086178,0.024238312991638977,0.020272832758036367,0.003965480233602608
855.8595884715705,0.010985666322961496,0.0070877864088272164,0.0038978799141342804
897.2064162763184,0.017235736023852213,0.015130333819186286,0.002105402204665926
908.4593516662047,0.028902040949241776,0.016175442250309886,0.01272659869893189
918.2511084503128,0.0016450413007917883,2.2001466472443756e-05,0.0016230398343193445
927.3480626711455,0.014244133081253295,0.005211459381630541,0.009032673699622754
979.1286110369749,0.004395742679798526,0.0002028970831971972,0.004192845596601329
1008.0514713074431,0.0005827173750628683,6.334784453650085e-05,0.0005193695305263675
1024.5181242301067,0.0031293798904114384,0.0028452897223772847,0.0002840901680341536
1029.6033862127476,0.00445625834512283,0.00012821978875515716,0.004328038556367673
1032.0552671520427,0.014199687615891998,0.00691994649295231,0.007279741122939688
1055.4237448778415,0.014116975896540537,0.00010779478770977435,0.014009181108830763
1058.8942063174438,0.0130691828308645,0.004392432003522454,0.008676750827342048
1067.2898791306618,0.007080901821790088,0.002322470905896381,0.0047584309158937065
1078.7406583437314,0.0361621260994259,0.014416837537390285,0.021745288562035617
1086.6134640946368,0.03543970168158449,0.005063946301442126,0.03037575538014236
1090.1036417065568,0.05550633732230072,1.0998386157864854e-05,0.05549533893614285
1092.2059364035633,0.004095197519141306,0.0020779447745568123,0.0020172527445844936
1101.1437895371762,0.019577511890923195,0.006395724747985137,0.01318178714293806
1111.1229390826998,0.010248969921414686,1.953379289393295e-05,0.010229436128520753
1145.0488441003295,0.05714820743299315,0.014160969756081426,0.04298723767691172
1160.116753320407,0.10975365743830827,0.09349956758972322,0.016254089848585045
1183.1784238925209,0.018214661080921204,0.001550730019001515,0.016663931061919688
1210.85754057284,0.0047158078646318,5.7761375070323874e-06,0.0047100317271247675
1223.9092115762246,0.012672072648362323,0.0003004746305115346,0.01237159801785079
1237.6513830058263,0.007824116451572962,0.0036517755055905684,0.004172340945982394
1244.411760636281,0.0018149806961986624,0.0005138214090005108,0.0013011592871981516
1255.9414642455763,0.004951080628827752,3.3107243736195364e-05,0.004917973385091557
1274.908534168688,0.0015442518649752763,0.00032395139006124226,0.001220300474914034
1279.7943118561043,0.004861194824907747,2.297117329814625e-06,0.004858897707577933
1304.4365131555257,0.0010555142727646115,4.241944475139054e-05,0.001013094828013221
1305.8430099595953,0.0012540596859493883,2.5308343990207476e-06,0.0012515288515503676
1317.3554420313087,0.005641581613921344,0.002353736862704564,0.0032878447512167805
1325.4221370550881,0.08234658996332599,0.0010016704466891393,0.08134491951663685
1327.446210758889,0.03502802353272758,6.386667040211441e-05,0.03496415686232547
1328.88154148182,0.02830650638263938,3.529367847769868e-05,0.02827121270416168
1334.7324174466976,0.00253146066228975,0.0003318012479001927,0.0021996594143895575
1336.727772016608,0.0005641994575279762,5.113129980394001e-05,0.0005130681577240362
1341.2491662482296,0.0022763984484895526,0.0014405551097167312,0.0008358433387728215
1341.4612624181582,0.0316657511511904,0.00021366757019555024,0.03145208358099485
1372.6433873230053,0.004292476990945836,0.0006229290504001059,0.0036695479405457294
1382.5413837640579,0.012611538833892362,0.0016459030961089051,0.010965635737783457
1399.7380395693604,0.0015299295922728596,0.00033566742175728355,0.001194262170515576
1405.8906336056602,0.006767078024012126,0.000434258245748753,0.006332819778263373
1412.180136124664,0.0013723825620738904,0.0007688933748374251,0.0006034891872364653
1412.6902827567958,0.001033737255809502,4.122942576333104e-05,0.0009925078300461708
1414.798956554434,0.005767757228420334,4.7883345235615495e-05,0.005719873883184718
1419.4964776167926,0.0016683255911295553,1.538931935134115e-05,0.0016529362717782141
1420.8484026476176,0.00817727410472569,6.762623028888791e-05,0.008109647874436802
1427.1723722105041,0.010560993129028218,0.0016561674647214363,0.008904825664306781
1479.0702535781177,0.022750658049312637,0.0004987660768321938,0.022251891972480443
1480.4741905386704,0.00046531300046301273,2.7255509251649304e-06,0.0004625874495378478
1481.710511653407,0.006578821167286144,0.0005645491744527678,0.006014271992833376
1483.0832023606977,0.005104809418329364,0.0006529076005183082,0.004451901817811056
1484.4852665957035,0.20916504064323738,0.011293156292490662,0.1978718843507467
1486.6080456384022,0.010947190177285744,0.0004467204635982033,0.010500469713687541
1489.363344749412,0.024572418684209455,0.0001317104451500809,0.024440708239059375
1491.1029514824336,0.00835755816618178,0.00012144390208215935,0.00823611426409962
1493.483234012312,0.002980891011883918,2.8761423295566704e-05,0.0029521295885883516
1493.74145489529,0.027327784718539517,5.875975161085697e-10,0.027327784130942
1494.146593201742,0.023501153385802567,0.0003687289049982473,0.02313242448080432
1498.1846189795099,0.004090447029443699,2.3155783789444356e-05,0.0040672912456542545
1502.5124506559446,0.0020819813454706804,2.0596312134031103e-05,0.002061385033336649
1505.1830607192658,0.0021266242001894437,0.0003047989039064047,0.001821825296283039
1506.288041750284,0.0014801119411479487,3.071408409396262e-08,0.0014800812270638548
3021.7873039657193,0.005726298773370805,0.0004206286470998562,0.005305670126270949
3022.2769705385635,0.08220437972098898,0.0754434608545334,0.006760918866455585
3024.0002552664128,1.197919254337343,1.1713857722759422,0.026533482061400618
3026.0949478843672,1.2750742020001453,1.1892984015945256,0.08577580040561963
3026.5372685828765,0.12989541717531775,0.09322542354876137,0.036669993626556374
3030.5586738849743,1.3702254909127711,1.2883545320871996,0.0818709588255715
3033.2224808166893,0.04856917621914063,0.003437732197631375,0.04513144402150925
3038.0982284964066,0.18052744975023122,0.17329257184896962,0.007234877901261584
3041.170110468398,0.3460275797931548,0.31378145170570815,0.03224612808744666
3043.4854884561055,0.30544457053538815,0.24613880548335984,0.059305765052028316
3043.706759302258,1.0784251756081664,0.0006264624538844134,1.077798713154282
3046.392623083237,0.012013152690712469,0.0035355417763840665,0.008477610914328403
3049.7111391785525,0.9157606501663955,0.9083497363085415,0.0074109138578539865
3051.6538651700225,0.8416162587138285,0.8306410664063049,0.010975192307523661
3052.6117246468657,0.33213723302327014,0.10565764748792825,0.2264795855353419
3054.479017582878,0.2222103846204082,0.13396537949814039,0.08824500512226781
3059.9232051334793,0.07292779064798507,0.05530294471355926,0.017624845934425818
3067.3331720664755,0.2100003084761688,0.029480052946237265,0.18052025552993153
3068.44383461092,0.5101698174277624,0.07995185938015688,0.43021795804760543
3075.8031238833537,0.07899229377903105,0.06472989326089996,0.014262400518131092
3077.107055552983,0.7146509812763571,0.5050599151031671,0.20959106617319007
3082.9174236606555,0.08562692936010066,0.001019915538085485,0.08460701382201517
3088.6708800421575,0.0007218593971058153,9.150670491630888e-07,0.0007209443300566522
3093.1623019555004,0.15157775801736176,0.11073873389105471,0.04083902412630704
3101.2748563210603,0.10822571876797443,0.008496028191472004,0.09972969057650242
3112.7219380274155,0.12831921732785617,1.1760327068752438e-05,0.1283074570007874
3116.1976567342313,0.12560844137358268,0.015990586383131136,0.10961785499045155
3120.7442793987775,0.4095891077370827,0.06209427576789489,0.3474948319691878
3124.3724338164943,0.34616535019040673,0.039691727020318174,0.3064736231700885
3860.1702765829177,0.22292042653601873,0.17638682422208246,0.04653360231393628
