frequency_cm1,total_intensity,isotropic_intensity,anisotropic_intensity
3.6611203009968305,0.0,0.0,0.0
2.7640194829057052e-05,0.0,0.0,0.0
1.566511648010814e-05,0.0,0.0,0.0
1.8415054448042418e-05,0.0,0.0,0.0
0.7967421964764206,0.0,0.0,0.0
0.8700155390738958,0.0,0.0,0.0
14.176840690519324,0.0002662647606939332,2.6633093881405072e-08,0.0002662381276000518
22.922156275861298,0.00015379323693713736,5.971474057411494e-07,0.00015319608953139621
25.09213343096992,0.001081933578306462,7.031247816214218e-07,0.0010812304535248406
38.931146452904215,0.00016643783010795516,6.549385129205292e-08,0.0001663723362566631
59.47789767365121,0.00043910682222391355,8.140568152695157e-06,0.0004309662540712184
63.19234563665953,0.0005115062730854827,6.31223787939372e-05,0.0004483838942915455
71.45772626018233,0.0004039670870910755,3.219079583748783e-08,0.000403934896295238
94.48913475871068,0.00015826150650496675,1.0249557691225775e-05,0.00014801194881374098
108.2932520389672,8.945076123269285e-05,3.772503517620496e-05,5.172572605648789e-05
118.01020584694854,0.0019817050615327874,0.0013244355069103103,0.0006572695546224772
127.39915869733004,0.00023596570745886323,3.3782196724383267e-05,0.00020218351073447995
143.30894901523106,0.006033438648174802,0.0040458671893117346,0.001987571458863068
146.0355351138736,0.007640664850915692,0.0050541289708603285,0.0025865358800553633
155.05021326215572,4.30114874769185e-05,8.376629433781305e-08,4.2927721182580686e-05
171.59069624201086,1.8817017918924922e-05,4.5896537569843775e-06,1.4227364161940543e-05
173.94199567332137,4.637906080486559e-05,8.726630270081352e-06,3.7652430534784234e-05
200.08097594367166,0.002994951621188878,0.0017636581813473507,0.0012312934398415274
243.8819415614217,0.0007189539057651188,7.031894462942684e-06,0.0007119220113021761
245.64463103407323,2.6479769633585343e-05,1.3394138547250625e-07,2.6345828248112838e-05
249.30471234372484,0.004430611539365928,0.00034258745709428554,0.004088024082271643
263.5827847983746,0.0017381753201474671,6.977453502553902e-08,0.0017381055456124415
308.74102172396863,8.550951490466776e-05,3.7848919429706974e-07,8.513102571037069e-05
345.9951449171047,0.0004174442068534084,0.00033525278979119904,8.219141706220938e-05
371.14992984867274,0.0010622540023143795,0.00010883328884054319,0.0009534207134738364
407.16212399158843,0.0012451517729756205,0.00044332775689260196,0.0008018240160830185
439.4443444959595,0.0017307550767800195,1.0439565377811904e-05,0.0017203155114022075
445.92580402715527,0.006053164227341382,0.004762742575953693,0.001290421651387688
496.6926220687725,0.000806445470225437,4.119222221142652e-06,0.0008023262480042943
510.05403977463067,8.907626439228045e-05,3.255665326782441e-07,8.875069785960221e-05
613.2085488164404,0.00534867168314979,0.00031350970178417673,0.005035161981365614
727.8917254251014,4.439653963182085e-05,5.541000523647764e-07,4.384243957945607e-05
728.839646873677,0.0001342358916747703,7.862589392689116e-06,0.0001263733022820812
731.0561357847002,0.00010271890657129252,1.141186912351591e-05,9.130703744777661e-05
737.7771451284495,0.0002750491125868913,1.7993925233381603e-06,0.00027324972006355315
752.645472625058,0.00023222319534415466,2.7495975424864846e-07,0.000231948235589906
778.5842420630518,0.0007188462183873146,3.1319426226264176e-10,0.0007188459051930523
816.4483320071262,0.0006086660143021027,2.2099095434638565e-05,0.0005865669188674642
829.3224865225648,0.05208680116817327,0.04438727943912053,0.007699521729052737
862.507707772765,0.0012945442133475396,6.310935218012948e-05,0.0012314348611674102
908.229674327967,0.03297791661224579,0.02007479905660739,0.012903117555638405
912.2750335230446,0.0014838958878689145,0.000187903742607529,0.0012959921452613855
946.6444880989632,0.01019065856713912,0.00019776639681583512,0.009992892170323285
962.462997660823,0.004177654391191766,0.0009083639481531078,0.0032692904430386576
990.0922285989345,0.01072606966944906,0.00670526106840196,0.004020808601047101
1007.8794498031759,0.004527844223043614,1.2337282069857181e-05,0.004515506940973756
1009.6732477436211,0.0009939939614023977,0.00031731172865742137,0.0006766822327449764
1019.7283111041453,0.002731347305175612,0.0002751352464770407,0.0024562120586985713
1040.2159940455776,0.006930654177776758,0.0024662366132871473,0.004464417564489611
1044.099823879089,0.005602246665111944,0.0017183819642506094,0.0038838647008613346
1053.5433848529706,0.0016601981269355648,0.0002515752775376504,0.0014086228493979144
1065.3769550659251,0.003952549789375696,0.0005717044294589085,0.0033808453599167877
1071.8069225593263,0.009952885724008818,0.0004734009670256828,0.009479484756983136
1076.9826017986527,0.005079196734530686,0.0012233172724971228,0.0038558794620335624
1087.3171242897804,0.0021670582910680945,0.001232134624710966,0.0009349236663571283
1088.8103775948039,0.10933799553204528,3.27967611880001e-05,0.10930519877085727
1092.0311181265436,0.00018062936606107836,3.895100037727608e-05,0.00014167836568380228
1092.2480469003801,0.003041301768258279,0.00014785375707161678,0.0028934480111866626
1113.6584358993741,0.06076243262815849,0.026759616272938724,0.03400281635521976
1148.2511065841152,0.05167464249215406,0.020779375367140838,0.03089526712501322
1159.7591245071446,0.16185936515765342,0.10978312430367881,0.0520762408539746
1185.9314199043595,0.0235896967547991,0.000631373345032694,0.022958323409766404
1207.1195392830887,0.007062840164854117,2.0482268477359863e-06,0.007060791938006381
1219.586617556272,0.006510837804342532,0.0015606217832416637,0.004950216021100868
1230.193819672842,0.0009762150366407397,9.710537000229555e-05,0.0008791096666384442
1246.242651901666,0.0049793655755288385,0.00022257098854500725,0.004756794586983831
1257.2813323362525,0.0008185017982350524,0.00013022203576958672,0.0006882797624654656
1270.835290118905,0.008027219994604925,2.116388692143624e-06,0.00802510360591278
1281.4452791655083,0.004948267466421408,0.00044896924005061563,0.0044992982263707924
1286.8800037334945,0.004507454355494504,0.0003518967803550653,0.0041555575751394385
1303.8149000161895,0.0013854260294115274,0.0004482831291096028,0.0009371429003019247
1306.5064993874769,0.0019575527036484485,0.0008011870994621035,0.001156365604186345
1320.4989309598218,0.016664998380864805,1.0080683863211718e-06,0.016663990312478484
1325.2617750663724,0.13699864426415012,3.080046131903993e-07,0.13699833625953692
1330.442782744794,0.0015044374848451412,2.4371463611097494e-05,0.0014800660212340438
1332.0459180262017,0.00037135649507609794,0.00016164673160557418,0.00020970976347052376
1332.667652147055,0.0004896151450184104,0.00025689078658667873,0.00023272435843173158
1336.6934385435893,0.013333258347573885,1.255109479488725e-07,0.013333132836625936
1337.807594368043,0.00012911512205089588,1.0340396217488817e-06,0.000128081082429147
1341.8974687065463,0.014440698319422166,6.645804643123056e-05,0.014374240272990935
1358.4755720819276,0.005084964164737988,0.0029417570571292338,0.0021432071076087538
1371.7996722061614,0.012051417160531592,0.002317896889359676,0.009733520271171915
1384.651454724868,0.0016927064473848277,1.5073272725477914e-05,0.00167763317465935
1400.7856745227625,0.002035213707873066,0.0009547732969477482,0.0010804404109253176
1407.5064097611391,0.003023542014884286,0.00042269766399802056,0.002600844350886265
1412.4275927711412,0.001408602751001819,0.0006960580586429073,0.0007125446923589117
1414.8809266311555,0.005228830426120741,3.691052019133851e-05,0.005191919905929403
1418.2487347122014,0.010559144364617608,1.966800972456821e-05,0.01053947635489304
1420.6109809896507,0.007200442226805669,1.5172219511691764e-06,0.0071989250048545
1421.1833914837598,7.718171581025866e-05,1.4972843618005043e-05,6.220887219225361e-05
1425.589378010583,0.016528609675601557,0.002952211452886854,0.013576398222714704
1473.1545761885914,0.033999990980202836,0.0014640098312419013,0.03253598114896093
1480.3512147059816,0.00031402976145493156,5.0373289814863934e-05,0.00026365647164006763
1480.4590883342423,0.004591772348875696,3.0544681442038835e-05,0.004561227667433657
1482.5028482495472,0.0008368449336205563,7.595885614234227e-07,0.0008360853450591328
1482.7737673292675,0.003991169373136814,0.001108806076633894,0.00288236329650292
1484.6528743546412,0.18266593803074244,0.012226307083126782,0.17043963094761566
1485.5210110595083,0.03749232706795716,0.0016952985048461803,0.035797028563110976
1487.2395798444777,0.04437082674833902,0.0037687700071778654,0.04060205674116115
1488.8760128152676,0.014523965294606518,0.00042570920041314,0.014098256094193377
1492.8644806117375,0.005928627797765925,3.0088385074903344e-05,0.0058985394126910215
1493.758267043876,0.02698077279847324,1.7665201748097144e-09,0.026980771031953066
1495.4562824231168,0.010263945037641642,0.00021949875128385662,0.010044446286357785
1497.207130767913,0.003120404604374549,1.5773642751559997e-05,0.003104630961622989
1501.1428811175135,0.0012823538663831258,2.3073912859131007e-08,0.0012823307924702666
1504.4014435463337,0.0014548357565907142,7.362219706752245e-05,0.0013812135595231917
1506.3111810185005,0.0010854626389769117,1.2646911297726434e-05,0.0010728157276791853
3021.512415933761,0.016474633926589242,0.014043160422786825,0.002431473503802415
3021.753338013068,0.037440217974522794,0.03495791073578746,0.002482307238735335
3023.3124785965324,0.07485813900300921,0.06427659286876071,0.010581546134248504
3023.499872692058,0.0022564018082267628,0.0013450469097958482,0.0009113548984309146
3024.909364453452,3.1779390871193476,3.1140376189456784,0.06390146817366905
3027.0833086643624,0.04091311338616019,0.040396368241870234,0.0005167451442899507
3029.1742813399187,1.5606116546525044,1.4829027856827504,0.0777088689697541
3031.80683178463,0.015134259011297072,0.0040603900459291985,0.011073868965367873
3035.8171669856665,0.12074596758836752,0.09904905222379953,0.021696915364567984
3039.037651635603,0.04693332902198603,0.04473687552155837,0.0021964535004276573
3041.1561999999562,0.40388567961214716,0.3687603404084983,0.035125339203648825
3043.097114321306,1.3943003291506846,0.00022335385410416763,1.3940769752965805
3044.4404934432964,0.022983872732294207,5.5342607284561064e-05,0.022928530125009648
3045.9337488153615,0.1752172908236875,0.12237544763135588,0.05284184319233163
3047.123877057067,0.3274447850850137,8.236606939537971e-06,0.32743654847807413
3050.0464898708374,0.918285578249524,0.9110702666473174,0.007215311602206561
3051.5422884185177,0.019538761444583615,0.011546709794102635,0.00799205165048098
3054.258795942097,0.7599224877627953,0.7022351639190212,0.0576873238437741
3057.948651505461,0.2683085787051375,0.1327856752613139,0.13552290344382362
3063.676319624666,0.11889570862754768,0.10385274435749398,0.015042964270053702
3069.2623799288435,0.2152462975320969,0.03870194814454712,0.1765443493875498
3074.9379794908446,0.05961765865901153,0.005582248931540719,0.05403540972747081
3077.6347108814784,0.542150527505485,0.33139778883112775,0.21075273867435723
3081.0096097515534,0.2099733163351494,0.08778113394673079,0.12219218238841861
3085.6193454868294,0.01808008343235561,0.015123162396025404,0.002956921036330205
3089.37491718016,0.02057283361979813,0.0014189151954523255,0.019153918424345807
3098.303216461228,0.05367486861903606,9.72869925500731e-05,0.05357758162648599
3112.955532282244,0.12910632100634142,1.4857691068695655e-06,0.12910483523723457
3119.5214571361093,0.18207383293340748,0.07165962808864745,0.11041420484476003
3121.1451139461924,0.40987456973655123,0.06270778272461669,0.34716678701193454
3140.095929854797,0.4013630984961243,0.07482350452832434,0.32653959396779997
3861.4241429961207,0.21452486886664643,0.1677200506329324,0.04680481823371402
