frequency_cm1,total_intensity,isotropic_intensity,anisotropic_intensity
8.995896284288172,0.010081107634906819,0.00023050259842505546,0.009850605036481764
0.6899486705518769,0.0,0.0,0.0
1.0700267506792982e-05,0.0,0.0,0.0
3.3691953151475014e-06,0.0,0.0,0.0
2.5995860455241236e-05,0.0,0.0,0.0
0.9616224182839188,0.0,0.0,0.0
1.0753493623013222,0.0,0.0,0.0
12.26972805174637,0.01817900237871861,8.299854117038759e-05,0.018096003837548225
23.965075900512133,0.017410596699617358,4.648268468491787e-05,0.01736411401493244
25.61264851987948,0.011342236012147787,0.00018833898645804093,0.011153897025689745
29.960513900205537,0.016722645834285847,9.209852868528299e-07,0.016721724848998993
36.62288812432986,0.02826569599132593,1.0816987116651596e-05,0.02825487900420928
51.83259001779445,0.011046798416071998,0.0007546545885127948,0.010292143827559204
55.626471165097804,0.030084635530483027,4.376276310225407e-05,0.030040872767380773
68.34189132094659,0.024330401781174897,0.0003291174458944447,0.024001284335280454
76.9319454440376,0.013604542409607314,0.0005410801384176545,0.013063462271189659
80.8875146084077,0.022784210934424173,0.00099934922906622,0.02178486170535795
154.31798508228061,0.007724973742117277,0.0018210527632860356,0.005903920978831241
173.40782149117584,0.006466629203954671,0.0033553345231445058,0.003111294680810165
191.67945066619959,0.011122694043033614,0.00799667663477394,0.003126017408259675
194.12371953243618,0.011550257079794426,0.0011426862920271342,0.010407570787767292
209.25115172971377,0.009088967420272214,0.0020703015206257123,0.007018665899646502
227.44447743822187,0.008873029686903433,0.00025440486890605937,0.008618624817997373
232.09247060274345,0.004919177991312674,2.0977265344717294e-05,0.004898200725967956
251.76679592507216,0.02045297873407695,0.015673382169988558,0.004779596564088393
262.04950968095665,0.008583778181201287,0.0032514721984152712,0.005332305982786015
303.8654164034818,0.0036849550205126204,9.58263193868033e-07,0.0036839967573187526
333.64313861715317,0.008198993885166787,0.0019978318757970332,0.006201162009369754
360.968917833662,0.008415161056449625,0.002750580683268948,0.005664580373180678
405.7374845317143,0.0020478963914120317,0.0014807846770856733,0.0005671117143263584
409.1226348352323,0.00916252680204272,0.005410630186368719,0.003751896615674001
409.99408831356556,0.0007946580710168408,0.0005563119167596944,0.00023834615425714646
411.28513284625666,0.00045933043047847566,4.4122281708733864e-05,0.0004152081487697418
418.56385206914206,0.010428174324172852,0.002764254972061024,0.0076639193521118275
429.8320124452437,0.010264528936727808,0.007654500309079425,0.002610028627648384
441.47073271363905,0.006306652105114443,0.0035577255540631316,0.002748926551051311
452.1509458067084,0.005309729376870707,0.0027578817589914554,0.0025518476178792516
497.76722563997964,0.0031660157356441176,0.0010441827217176772,0.0021218330139264403
501.5507277569396,0.00528627200779457,0.0009772563175529105,0.00430901569024166
525.150332224239,0.0029152486516811297,0.0001957181041475499,0.0027195305475335796
529.6549393420664,0.005965067120272426,4.140726733459476e-08,0.005965025713005091
632.178657302681,0.011738114159049127,8.77573960209913e-06,0.011729338419447028
632.7217258163295,0.011798323325258153,0.0007983219571951687,0.011000001368062985
633.4790352134572,0.01703925847210978,0.0004603543160038367,0.016578904156105943
634.1282361321686,0.013037026113761825,0.00014071497126386587,0.012896311142497958
706.1731135337892,0.028401178588468037,0.006012068363260649,0.022389110225207388
708.5024506666139,0.030253126740797345,0.02184041066704403,0.008412716073753317
714.8431808261068,0.02633047644587898,0.0013189006254943438,0.025011575820384636
715.9365447021931,0.013251844493509489,0.000607314059741942,0.012644530433767547
719.7108298630678,0.002011904409696542,0.0004592880048135608,0.001552616404882981
721.0933406251045,0.008207569588016494,0.006893509800435573,0.001314059787580922
722.3694172527842,0.02591750374335299,0.022249323031842714,0.003668180711510278
724.1687201213009,0.02321424595184133,0.010489043223271759,0.012725202728569569
740.0869110950135,0.012305515798133737,0.0006263344707840563,0.01167918132734968
744.3082308115795,0.018036892391096106,0.00016567696565329077,0.017871215425442816
765.0376265813302,0.008352498717861711,0.0073370965396173295,0.0010154021782443818
771.2593095086407,0.0028726551126282175,0.0020647176155907704,0.0008079374970374469
777.119630328079,0.002559306889931813,0.001470720275224568,0.001088586614707245
779.3803915711561,0.006146899100659968,0.004161529764679879,0.001985369335980089
812.2993496883547,0.18586740815999014,0.14196863016233843,0.043898777997651725
869.0142164317288,0.0015613028501890842,0.0002765706140782681,0.001284732236110816
870.1586223294502,0.0034939200775062408,0.0024098353530889786,0.0010840847244172622
871.4278817529005,0.0021248229097473184,0.0004031683521035204,0.0017216545576437979
874.7150573906875,0.0009611023139731963,0.00021543108062104427,0.000745671233352152
912.6668702980517,0.008087734669684555,0.0003271558743856557,0.007760578795298899
946.5375709583823,0.007653023742351417,1.2873223141549809e-05,0.007640150519209867
950.1426211471194,0.013255299378411202,6.006711217827366e-06,0.013249292667193375
951.1616754181305,0.013068950358334625,0.0019151235062817463,0.011153826852052878
952.7445815101601,0.0215120718532207,0.005210257883679331,0.01630181396954137
1009.988420117142,0.0014184416440726861,2.7149040100868106e-07,0.0014181701536716774
1010.4776011923447,0.002658784529128538,0.0007718650621346973,0.0018869194669938404
1011.4679649968394,0.005255848438718762,0.002671314975010871,0.0025845334637078915
1012.6785443386811,0.002919726972157414,2.2285777367225415e-05,0.002897441194790189
1024.3487143461596,0.31224251094790073,0.27176723220559207,0.04047527874230865
1025.8867009022317,0.21410326390269094,0.16977411409513585,0.0443291498075551
1026.4363347059293,0.18512309892342946,0.1623015478606912,0.022821551062738244
1027.0724821449303,0.10834749491521528,0.08578488352487613,0.022562611390339146
1029.4339899647384,0.03328574079807988,0.030286198769875917,0.002999542028203963
1032.3241287924018,0.0012375363306656088,0.00023917035442071375,0.000998365976244895
1032.543087895687,0.000198301225654995,1.1383328066084212e-07,0.00019818739237433415
1035.0381100561322,0.002126028798765728,0.0012850739281038376,0.0008409548706618903
1039.5858552501243,0.01015584415100663,0.0019974561926709403,0.00815838795833569
1057.8770183330591,0.174511491079023,0.12499867826954948,0.04951281280947351
1058.306118823849,0.20660076253665788,0.17653910577244497,0.030061656764212893
1060.5551923000696,0.27441001802809317,0.22995441494174151,0.04445560308635167
1062.5566530827962,0.2902332818103246,0.2356080379222373,0.054625243888087316
1102.8808879374562,0.006033663532648096,0.004327691587228679,0.0017059719454194165
1104.5628000955612,0.0021477037950190327,2.0276480547104053e-05,0.002127427314471929
1107.7286149645022,0.01135264922679061,0.0039608596342114565,0.007391789592579153
1112.1895019572246,0.008727888024945372,0.0066865343549814505,0.0020413536699639204
1122.5870653751435,0.015972885722731842,0.0017655163321479105,0.01420736939058393
1133.4250269201282,0.14292453390659474,0.000788716881050266,0.14213581702554448
1133.6683153900756,0.12979829218005126,0.09019233276853042,0.03960595941152084
1138.726153736085,0.31241921020797875,0.26768803101220084,0.044731179195777904
1140.0313348801917,0.27019264630922096,0.22164755147417947,0.0485450948350415
1174.2543519160465,0.028900770742701747,0.0014518832547235265,0.02744888748797822
1174.684430170187,0.008108490947766374,1.4164934044936826e-05,0.008094326013721436
1175.8819536522776,0.03341118806041238,0.008015637938131013,0.02539555012228136
1176.0217621530892,0.02829880265901398,0.0003101958084863306,0.02798860685052765
1202.9758567601875,0.010782083823741925,0.0009498198175784315,0.009832264006163494
1203.4521233086894,0.013870428666192718,7.424238108235228e-05,0.013796186285110366
1204.6920080715954,0.033060073336822676,0.025257289557447677,0.007802783779375003
1210.7449550011713,0.0586864045055645,0.04323096897629766,0.015455435529266835
1216.9880942078598,0.01521144598565702,0.001657490030683565,0.013553955954973456
1285.8686852312483,0.010260355598871567,0.0009910828951758632,0.009269272703695704
1296.8243050546298,0.04048410238565156,0.02609339864141248,0.014390703744239081
1299.7675522568888,0.009706447673552865,0.002546499909494297,0.007159947764058568
1302.3158056457817,0.010617506739831318,0.002576084034977904,0.008041422704853415
1307.4836509960483,0.007820498988084021,0.00039956301100767293,0.007420935977076348
1311.916110344702,0.02796640583554813,0.003512421737157592,0.024453984098390537
1350.4642341229576,0.007453264661575963,0.002150314005587941,0.005302950655988022
1351.8011595094042,0.017841847509176983,0.004135573207786435,0.013706274301390549
1355.6793753158963,0.008134341690125146,0.00025476207259368195,0.007879579617531465
1359.5249731343886,0.034041134178570034,0.0027066445894512736,0.03133448958911876
1468.9628139786148,0.057931824926863384,0.011542753946288484,0.0463890709805749
1477.858690110036,0.02273520956209877,0.006156532991178718,0.01657867657092005
1478.3134230820478,0.01141127235497485,0.0001619448203265059,0.011249327534648345
1479.7750622714434,0.007715116136049337,0.001592202064597913,0.006122914071451424
1482.3245600264167,0.012633419760207886,0.0016866812071613608,0.010946738553046526
1482.4376112040536,0.013565109431799038,0.00010127614857103454,0.013463833283228003
1529.4227006387407,0.04753641854400456,0.03926686576258039,0.00826955278142417
1529.9990393106043,0.007952719755331279,0.0008662537017780272,0.007086466053553252
1532.681755654817,0.03764325930472352,0.03441654879094206,0.003226710513781462
1533.8925625802922,0.012437425270751297,0.00120823604292448,0.011229189227826817
1650.4982594885957,0.04180538357132568,2.8429929632405372e-05,0.04177695364169328
1651.4740457430878,0.05902175244967285,0.006561849350767896,0.052459903098904956
1652.6148751312774,0.07583557440164743,8.103747071416825e-05,0.07575453693093326
1654.3215429253003,0.06320423476484971,0.002017073902081583,0.061187160862768125
1668.3639493016456,0.14743031925525663,0.00015059666813425362,0.14727972258712238
1668.6577647575584,0.058903067939032966,0.011115437167763195,0.04778763077126977
1670.2846977739662,0.21829518650969645,0.07111531773198998,0.14717986877770647
1670.3824488456587,0.11531196697893734,0.006945085146335573,0.10836688183260176
3058.9185344621096,0.6549468540916965,0.6358460842203086,0.019100769871387844
3072.591837263181,0.1598805701864281,0.15071350761648938,0.009167062569938721
3114.0920698362593,0.2659966212387008,0.007422102691025506,0.2585745185476753
3130.965909063603,0.11125677917462151,0.0038892553542378703,0.10736752382038364
3180.117618596076,0.11187501426868612,0.025286842296585267,0.08658817197210085
3183.9824922889575,0.106369324093214,0.01244561068511514,0.09392371340809885
3185.208619805511,0.1927122325639082,0.02364916853823058,0.16906306402567764
3186.6846704971163,0.1211860332619158,0.012019666550988035,0.10916636671092776
3187.093256546663,0.12490865894473521,0.0027402119645055486,0.12216844698022966
3191.684730058538,0.16219194253286767,0.003839357560678492,0.15835258497218918
3192.6299456948,0.2010463139459272,0.0028298871172498024,0.1982164268286774
3194.431123790735,0.23971285770691708,0.0009142962374772908,0.23879856146943979
3197.3473518892724,0.28923294693477974,0.08080645417755924,0.20842649275722053
3200.033179177617,0.3793472272646591,0.06098230345402105,0.318364923810638
3200.1068844175675,0.3418193267207989,0.05865463937472813,0.28316468734607075
3204.552957020169,0.4497623909175321,0.00321488678408354,0.44654750413344857
3207.6682621264717,0.2308919429411561,0.00030255926283785824,0.23058938367831822
3209.804586570345,0.2773503364923775,0.0015522013311075333,0.27579813516126994
3210.1763328881602,0.21057082930066107,0.030679984296612353,0.1798908450040487
3213.275573108584,0.33495592845943545,0.13284339388345046,0.20211253457598502
3218.354251275687,1.0922266803001064,0.8231256263441461,0.26910105395596023
3219.1446099849463,1.3220193386683547,1.0384342931281147,0.28358504554024005
3220.0904247657422,1.669786784092968,1.3727862902205719,0.2970004938723963
3221.409430827744,1.3071248546728058,1.0525403368823236,0.2545845177904823
