frequency_cm1,total_intensity,isotropic_intensity,anisotropic_intensity
0.7906822908464453,0.0,0.0,0.0
2.9044647662419923e-05,0.0,0.0,0.0
7.204734539296017e-06,0.0,0.0,0.0
2.380901713200858e-05,0.0,0.0,0.0
0.69732068334066,0.0,0.0,0.0
1.298043282817714,0.0,0.0,0.0
21.06028495211436,0.010186746790944423,0.00015599490897795284,0.01003075188196647
28.973514705854484,0.013913810142500767,5.763863048512981e-05,0.013856171512015637
44.89288677101467,0.010387522304955854,1.1641984456601351e-05,0.010375880320499253
63.00618838821241,0.00037144325007987874,1.123163084742977e-05,0.00036021161923244894
68.0892247421719,0.001787934900832662,2.9954840051276325e-05,0.0017579800607813857
113.37197478830387,0.002216736396932145,1.648008640884607e-05,0.002200256310523299
125.05088364272316,0.005015605746291743,0.0007015080556701833,0.00431409769062156
140.0301582824027,0.0005329512500723606,6.569092419847547e-08,0.0005328855591481622
158.61237835227843,0.003712399516250118,0.00019574120060220621,0.0035166583156479117
173.59167648979067,0.004542609160860047,0.0008829074671093124,0.003659701693750735
222.1197328631852,0.007192900968795464,0.0057538788541548645,0.0014390221146405998
240.1927125691926,0.002043055159199945,0.0013915671075859666,0.0006514880516139787
246.4523666062244,4.858700725172712e-05,3.820737977511366e-05,1.0379627476613458e-05
303.0800363178691,0.010315665786765387,0.005572799420789021,0.004742866365976367
378.40229829778457,0.007145423876480697,0.0032990425761363035,0.003846381300344393
414.53952958446723,0.002626539885688521,0.0021900731950385784,0.0004364666906499426
421.28051811656803,0.006972694517858288,0.005259937249915438,0.0017127572679428498
445.8118616391248,0.001779551236486762,0.0007797013026133756,0.0009998499338733863
470.11163230062357,0.00035471759014189016,0.00023196800464302526,0.00012274958549886493
487.62737423249916,0.006840762792314313,0.0037469560064227257,0.003093806785891587
616.8840767358237,0.004581482240663842,0.00028506212029309443,0.004296420120370748
631.4585833763838,0.024099178143634367,0.00019990416398200627,0.02389927397965236
706.2260047873581,0.011230800452575636,0.009932156377708477,0.00129864407486716
718.084587870424,0.004151641793753682,0.003686376969417669,0.00046526482433601303
730.1350852457032,0.0002883489134133336,9.432736145607317e-05,0.0001940215519572604
738.5257414723452,0.002635648822096418,0.0011798911588353214,0.0014557576632610965
754.4611955384585,0.026766839040124862,0.021035636623189167,0.005731202416935694
777.6271151057925,0.011304735192279014,0.009635541996765426,0.0016691931955135867
812.8574415695293,0.003237003292888866,0.0005641830847259557,0.0026728202081629103
847.0501190343177,0.003923707657630766,0.00258387528017926,0.0013398323774515063
879.4759931112835,0.0026144187418840844,2.4386651858342163e-05,0.0025900320900257424
908.9876852128207,0.031799651821264624,0.019729311523643506,0.012070340297621114
929.622183600656,0.0022878334352376527,0.0013027849990243034,0.0009850484362133494
972.2612717184268,0.001783510741709053,0.0010207371361739507,0.0007627736055351023
1005.8176549655203,0.0013835805800127843,0.00031992071978210763,0.0010636598602306766
1018.1786950234313,0.003392725640531015,0.0008367045626850255,0.0025560210778459895
1020.7958599610466,0.0002881086527451839,0.0001641479323265901,0.00012396072041859378
1027.8123987208455,0.1159810841116863,0.1012005120820604,0.014780572029625886
1038.9666986791979,0.005597186448709017,0.00465682927560275,0.0009403571731062661
1041.5680709073995,0.08439132320907382,0.07783932153408976,0.006552001674984055
1055.6063457347896,0.016388362095694813,0.003832109884410442,0.01255625221128437
1060.588514762654,0.03582748405215839,0.020837112225017104,0.014990371827141283
1067.072838482134,0.07778102818811591,0.0621670190189955,0.01561400916912041
1084.5675245119753,0.008010654508137163,0.0038911723426048603,0.004119482165532303
1091.0612707090918,0.055501504444560965,0.004353081154882931,0.05114842328967803
1116.328176207315,0.016061286872401218,0.012474048611624987,0.003587238260776231
1136.2880892171995,0.08457117367769261,0.06990397603644297,0.01466719764124964
1146.4636106523146,0.08414044253532069,0.03406201899309935,0.05007842354222133
1177.8650606911417,0.028134452496407215,0.000542586715178703,0.027591865781228513
1206.4713577139364,0.026652048396020984,0.011950137792503977,0.014701910603517006
1212.8763291660282,0.0069915783828632325,0.0038115187733855707,0.0031800596094776618
1237.4045443205189,0.0032263559326654997,0.0005340167094036991,0.0026923392232618007
1252.5151907635575,0.03160733263883598,0.025307021620888995,0.006300311017946982
1280.7751607116438,0.010610277348021776,0.005735276418215711,0.004875000929806065
1295.8298077972797,0.034543298476842295,0.02434725239293775,0.010196046083904542
1312.2595639471833,0.0463591377921908,0.030139423844937254,0.016219713947253547
1323.2575447497682,0.011103686778899044,5.131201019323165e-06,0.011098555577879721
1328.377059097439,0.06005109692041691,0.0026525043675240645,0.05739859255289284
1333.9395320490623,0.016508826197618523,1.0286523857961551e-05,0.01649853967376056
1338.2730861055718,0.0018833396676004753,0.0013440373782337375,0.0005393022893667378
1338.913542462982,0.01287693089728343,0.006925969192532401,0.005950961704751029
1354.7771953557528,0.01817997883968353,0.00697755097211561,0.01120242786756792
1379.7445005254601,0.006659181328401863,0.0015947867985904452,0.005064394529811418
1407.45263361914,0.0013408162464414162,5.097063169477937e-05,0.0012898456147466368
1413.4363333561541,0.001807612838155627,0.0011910543935036244,0.0006165584446520026
1419.8609535241433,0.006602373999655685,0.00011873210163863597,0.00648364189801705
1481.601101733725,0.005049563058859838,5.139626499058404e-06,0.005044423432360779
1482.464423573619,0.003314152159562131,0.0007739612565129036,0.0025401909030492277
1484.8162522113573,0.14214434766904271,0.008069889839785915,0.1340744578292568
1487.8402833143768,0.019959630569014123,0.0015582302380353593,0.018401400330978764
1493.6164414400166,0.011638219260951741,0.00516450755204306,0.006473711708908681
1494.093161217245,0.027080607618258496,4.865418335754008e-06,0.02707574219992274
1495.2855956529381,0.016656845691618325,0.0033309979415018552,0.013325847750116469
1502.1839659537613,0.002330166480788582,3.621802044462321e-05,0.0022939484603439588
1506.4711386980857,0.0021059179124559213,1.905850671869568e-05,0.0020868594057372254
1541.4749557652997,0.017258424439914745,0.0042284811541951585,0.013029943285719587
1659.988091349293,0.042036322299878616,0.0036512515076840327,0.03838507079219458
1678.6570814443587,0.4042357785927879,0.08922585886273374,0.31500991973005416
1784.9848137203599,0.20658680692776937,0.12341975636822265,0.0831670505595467
3024.3409286362753,0.6642542482806006,0.6322098431485916,0.03204440513200899
3027.0125196891645,0.5727974153910698,0.5585857717329951,0.014211643658074667
3033.624164743418,0.5711706494050849,0.5315028594574893,0.03966778994759558
3041.579135231594,0.30287095936180347,0.268294090065092,0.0345768692967115
3047.5693489477003,0.7177684666016635,0.014911538129285896,0.7028569284723776
3050.337925302094,1.2195663466746782,1.2109228933679104,0.008643453306767815
3050.91277551534,0.20375312562224349,0.15185191195551284,0.05190121366673064
3057.451145194704,0.013233832361427004,0.00033181695935667995,0.012902015402070324
3071.2323372550554,0.2435004696299128,0.009788717916957939,0.23371175171295488
3074.762600763231,0.27012467185449945,0.23219686100211118,0.03792781085238826
3083.7378873508846,0.015548562591441136,0.010760651387083606,0.00478791120435753
3095.281564125607,0.11246793357881273,0.0028194147035725693,0.10964851887524016
3113.435654297703,0.12818862854849855,1.3931468239272924e-05,0.12817469708025928
3121.8064452189524,0.41593106711152256,0.06388287482417228,0.3520481922873503
3134.060309889376,0.22426088279851086,0.07695516971812381,0.14730571308038704
3195.8407787684932,0.21060497194075672,0.00023470828409415614,0.21037026365666256
3206.7844257074603,0.5305382251085587,0.0011103194449421433,0.5294279056636166
3215.9484924646154,0.3808780681771625,0.21331834809392441,0.1675597200832381
3226.2232860807526,0.28534214202233676,0.22175510157709918,0.06358704044523755
3230.3522711088526,1.1094960095252295,0.8904494662328418,0.21904654329238762
