frequency_cm1,total_intensity,isotropic_intensity,anisotropic_intensity
0.6725766576995562,0.0,0.0,0.0
1.804883545762693e-05,0.0,0.0,0.0
6.881727423992907e-06,0.0,0.0,0.0
5.608831862540412e-06,0.0,0.0,0.0
0.7648342890446195,0.0,0.0,0.0
0.8654733159492919,0.0,0.0,0.0
4.8598507170982455,0.0,0.0,0.0
13.476093685075455,0.0001583185965452133,8.220254000807723e-06,0.00015009834254440559
16.837751268120357,0.000315384406552742,5.193497579239544e-07,0.00031486505679481804
17.402245872106164,0.002700125662620407,2.355413238344935e-06,0.0026977702493820623
26.59595255141514,0.0007726172356433249,8.100568635823558e-07,0.0007718071787797425
30.746104480260403,0.0011382037515727506,1.3873871553032163e-06,0.0011368163644174473
35.99330748381506,0.0002555798073955186,1.0864385067904876e-05,0.0002447154223276137
44.3406275479763,0.00017069829834678442,2.8487917187990504e-05,0.0001422103811587939
49.83179295093325,0.0007743250491592413,6.260408399245219e-06,0.0007680646407599961
53.79477916408799,0.00031273771108929514,2.111512163593269e-05,0.00029162258945336243
62.23733741615813,0.0025050486138356153,1.2455610421986846e-05,0.0024925930034136283
72.69689803844544,0.0008722140698089667,0.00010402602542326666,0.0007681880443857
87.37571544161688,0.00028531580607862574,5.778086255531829e-07,0.0002847379974530726
88.85772234237277,0.0007945868826975207,0.00015186641842689612,0.0006427204642706245
95.3647110777306,0.0008977528660444212,0.00022911293763773773,0.0006686399284066835
102.57941679905785,0.0006181895463874436,0.0005192886790482757,9.890086733916789e-05
111.10841469294235,0.0006840778340525605,1.5036092416914294e-05,0.0006690417416356462
118.95447412736316,0.005766424584051536,0.003152103177492005,0.0026143214065595314
119.96359478445586,0.003043987477272941,0.0019538820801043833,0.0010901053971685577
124.58679801078625,0.0037200980225454905,0.002153715832606172,0.0015663821899393187
135.38911076782205,0.0003267173583987699,9.106391686092217e-06,0.00031761096671267764
144.8014942081237,0.0004475363951273733,0.00032769537352873336,0.00011984102159863993
151.26460577395545,0.0002928245129287811,0.00018455792975881076,0.00010826658316997036
157.51490427165373,0.0016768479860013509,0.0014283699434118773,0.00024847804258947345
160.40401695096327,0.000174069208546368,2.852288775615368e-06,0.00017121691977075264
164.2312014760801,0.0009269730937383547,0.0003091607601255929,0.0006178123336127618
172.26194178842636,4.759120261275592e-05,1.2629609569478438e-08,4.757857300318644e-05
175.30133401111826,6.476578885334123e-05,2.9522725156867367e-05,3.524306369647386e-05
186.56281401661747,0.0022835015138903264,0.0007684612657622366,0.00151504024812809
197.53856062090264,0.00765208539442181,0.0030138382591394577,0.004638247135282352
211.15202652052002,0.012227142787314724,0.009099001091118436,0.0031281416961962878
222.09486213748187,0.0014295478872802818,4.7208699606776556e-05,0.0013823391876735052
245.74027148946791,2.1411587459341862e-05,1.8789558121063268e-07,2.122369187813123e-05
246.4118759282704,2.055381605782874e-05,1.9641583598000853e-07,2.035740022184873e-05
255.75836794090475,0.0003637959336687218,0.0002274873668462633,0.0001363085668224585
293.29535811186275,0.00027257771428941204,7.200889694840054e-07,0.000271857625319928
332.7128076984891,0.000649277303638559,7.622352705826482e-08,0.0006492010801115007
353.66205045076833,0.0006866534244550908,0.00037680395139215087,0.00030984947306293996
378.12379949289965,0.0006764903040289185,4.180175444442721e-05,0.0006346885495844913
384.50450709526814,0.005070570408062715,0.0039387604553852,0.0011318099526775142
438.6286760066581,0.0018139986586668136,0.0012580334917509763,0.0005559651669158374
451.5719238586863,0.0002559935709502214,1.3476929622817303e-06,0.00025464587798793963
463.92127222345744,1.0836128144583927e-05,3.472545623887033e-06,7.363582520696895e-06
478.82820543635387,0.0005722417186123532,3.903409859476336e-07,0.0005718513776264056
506.93768281402134,6.205228411905014e-05,2.7082061397986745e-07,6.178146350507027e-05
514.0197178649232,0.0009036139139265263,0.0006125041453133187,0.0002911097686132076
529.077122488739,0.009405131910355321,0.0040105817480480645,0.005394550162307257
622.7158827854063,0.00811097940904839,0.0002063461950434251,0.007904633214004964
727.7769319444596,5.4766609163796815e-05,2.5093181994843525e-07,5.451567734384838e-05
728.5862096725175,0.00012126508052156427,3.351563172369114e-06,0.00011791351734919515
729.5763157651678,0.00012758702053442385,2.6598195230013618e-05,0.00010098882530441024
730.5892794402391,0.00011758309690298564,1.7753344391174795e-06,0.00011580776246386816
734.8638905212156,0.000540105390669468,1.2746254404276021e-06,0.0005388307652290403
737.6110005319717,0.00027197762441262687,0.00020290284424600527,6.907478016662161e-05
743.3585119126319,0.004679565260762127,0.004498542134820188,0.0001810231259419389
744.1695347273106,0.010666314904233606,0.009919748519634359,0.0007465663845992464
759.6505053418327,0.0007361220150281857,0.00012535418302136688,0.0006107678320068188
763.6991324406534,0.0004079158102900468,1.601084441798152e-06,0.00040631472584824865
784.8897711235196,0.0002827905620783231,4.101909450219049e-05,0.0002417714675761326
811.4435898430161,0.00017696102862190137,1.9248718919145927e-05,0.00015771230970275545
817.746319940815,0.0006609143577049204,5.75551039965779e-05,0.0006033592537083426
854.5079159469849,0.0034796564793732414,0.0022519271604468354,0.001227729318926406
871.3047749387997,0.02220857274828391,0.017228033090984154,0.004980539657299754
881.4658613775649,0.002265584165733349,0.0013315974327031896,0.0009339867330301593
902.6604602766621,0.00494037506911564,0.0038651400436061152,0.0010752350255095245
908.33977091018,0.031307558570119444,0.017578638022542777,0.013728920547576667
908.9139276036699,0.025029029751377073,0.01548815277301299,0.009540876978364083
946.4470176318745,0.0014760874338479964,0.0010765880973761437,0.0003994993364718527
960.3772337098596,0.0003384141202936368,3.019854025947469e-05,0.0003082155800341621
989.2237594966418,0.0011635749341514783,0.0006914248542400749,0.00047215007991140335
1005.4770034960204,0.0015071553787405218,0.0002917640414022999,0.001215391337338222
1006.6996692625572,0.000376893942093212,0.00030492132614809507,7.19726159451169e-05
1020.4386337303015,0.003400069905356265,0.0017000971667159221,0.001699972738640343
1026.9994097021313,0.002520625542833347,0.0020351306062017273,0.00048549493663161986
1028.6100243147898,0.0015258200903798531,0.0004157293044687796,0.0011100907859110736
1035.0510915847274,0.0003772657011641995,2.3601379868012767e-05,0.00035366432129618677
1037.158466122287,0.00817337375656808,0.003726600161392881,0.004446773595175198
1042.473840206089,0.01549946239335864,0.008830581298599188,0.006668881094759452
1049.8332671306196,0.007122013687162356,0.0013294520909814232,0.005792561596180933
1059.0166624315361,0.0022682393614732203,0.00121430858677736,0.0010539307746958602
1066.6938772159342,0.011744769328071522,0.00016962420977355142,0.01157514511829797
1069.2518601257948,0.006026605783858334,0.0039075696835387036,0.0021190361003196306
1077.993284981802,0.004052802913708281,0.00199301859527888,0.002059784318429401
1083.2950607606847,0.020573343000004598,0.00032688733300998573,0.020246455666994612
1088.109766782763,0.03547794651741684,0.000133550005305044,0.0353443965121118
1088.6139033245643,0.10106309669400709,0.00031941096537692007,0.10074368572863017
1089.4157021862195,0.008961384124611413,0.007541641613006507,0.0014197425116049065
1090.5730805202465,0.0036066022443937825,3.4596418134877908e-09,0.003606598784751969
1090.90603116022,0.03309837853463517,0.0038682583946290663,0.029230120140006102
1091.923964110066,0.0001524409166368511,1.4273720597788242e-06,0.0001510135445770723
1092.9446175173427,0.004900616472648681,0.00020083725549979487,0.004699779217148886
1111.6867451235642,0.017305464944510615,0.0045253060040805655,0.01278015894043005
1121.7573499770576,0.03964358860591052,0.0009419957794879256,0.03870159282642259
1124.680805626025,0.07259366021662111,0.04620467671010163,0.026388983506519484
1157.054191294152,0.2820086313187822,0.1772623628052073,0.10474626851357485
1158.0593525379002,0.12880837954537586,0.06588039162977143,0.06292798791560443
1187.8747665553367,0.0029589786482627513,7.459234634333917e-05,0.0028843863019194123
1203.932152699537,0.01903328092495092,6.103620460342313e-05,0.0189722447203475
1216.3415735165145,0.007181897907251033,0.0015548425918845135,0.005627055315366519
1217.107776216218,0.002433632653495162,0.0004918990411365347,0.001941733612358627
1219.3570773323024,0.00399822938445978,4.468791397267681e-05,0.003953541470487103
1234.7673755538146,0.005686426764751391,0.0008384501392254346,0.004847976625525957
1240.365541062361,0.00022573778823203387,4.633340882179672e-05,0.00017940437941023715
1242.025691596384,0.00032671711711754735,3.624337203716362e-05,0.00029047374508038375
1255.1908021184568,0.0040790525175858645,0.0006185213714974935,0.0034605311460883708
1261.0199827546621,0.001316168672971263,5.6331826490917514e-05,0.0012598368464803455
1263.726246580894,0.0009923869182339987,4.3577677185736265e-05,0.0009488092410482623
1275.8136064574085,0.0014595135663069264,0.00022367141861648142,0.001235842147690445
1285.7110837245887,0.0011301062583441825,5.804817152802764e-06,0.0011243014411913797
1287.5878986699925,0.0004157516890048207,7.133827105635931e-06,0.0004086178618991848
1295.5145035765786,0.0015660361866409339,3.690807618395921e-05,0.0015291281104569746
1300.4106029674087,0.003032044712999626,0.00011716975589814742,0.002914874957101479
1306.1112173264257,0.003944088282982591,3.0308942038314047e-05,0.003913779340944276
1314.1375402610454,0.0005829716154373494,0.00013520667881627277,0.00044776493662107656
1322.291245228365,0.004315615637984536,1.8561586699829213e-05,0.004297054051284706
1324.6404844765398,0.1454398434696723,2.431589425866835e-07,0.1454396003107297
1325.8535548051752,0.0574205564911342,0.0006904590813302299,0.05673009740980397
1327.6347795735085,0.06801619773507726,0.00013925651204276296,0.0678769412230345
1329.6979931688272,0.0013568375614395013,0.00011496696390510192,0.0012418705975343993
1329.963024703284,0.010652500896535447,0.0001774069191691835,0.010475093977366264
1334.5380293006192,0.011914564457338572,1.3460780809241763e-05,0.01190110367652933
1335.118740222952,0.010919718901327537,0.00013702363546516164,0.010782695265862376
1335.5984860453532,0.0012148553734311835,0.0003899652699311563,0.0008248901035000271
1336.6852880074086,0.0006023503054076478,0.00023449914921960414,0.0003678511561880437
1338.1393884475633,9.213132406156105e-05,1.9203985087752617e-05,7.292733897380843e-05
1338.802052131108,0.0011582260662344954,9.475595853936806e-05,0.0010634701076951273
1339.8955792567426,8.109170985516063e-05,7.070511507488817e-06,7.402119834767181e-05
1342.2812745273297,0.007625676609592298,0.00021455540500828408,0.007411121204584014
1357.9152291774685,0.001199120612458342,0.0002467937685499696,0.0009523268439083723
1376.8181695255112,0.0018017898648352002,9.401647192936021e-06,0.0017923882176422642
1380.8777448874484,0.00202511207950986,6.560364097254334e-05,0.0019595084385373167
1393.5563213572743,0.0012752375165831493,0.00036901935984954307,0.0009062181567336062
1406.3045269609588,0.0025318826452676857,0.0002831002858895166,0.002248782359378169
1409.5345881294493,0.0007462413784435812,0.00010058431558291706,0.0006456570628606642
1412.5050696858195,0.0010310715465318677,0.00039554937766229123,0.0006355221688695765
1413.277449817554,0.0018290526359354155,0.0007667625987095384,0.0010622900372258771
1415.6681148673672,0.0008731514934710494,0.00043004395212555257,0.00044310754134549673
1419.8391821889302,0.01489050405168069,2.9813811583050144e-05,0.014860690240097639
1420.6240145419733,0.0005882044606539709,2.1414990845739887e-05,0.000566789469808231
1421.4568793563049,0.007426097284034789,1.8205612887389466e-06,0.00742427672274605
1421.701827141883,0.00028610375877485583,4.0842588881007396e-07,0.00028569533288604575
1429.572610918184,0.002841445661674229,0.00016353655503035882,0.0026779091066438704
1479.9642235532137,0.0008801400847986627,7.036873346044169e-05,0.000809771351338221
1480.1476150569454,0.0009265880833397144,2.4792780709070114e-07,0.0009263401555326237
1480.5035923317391,0.005499607704143247,0.0017213043180183164,0.0037783033861249313
1481.502493048555,0.007147383071222888,0.00028327888493250963,0.006864104186290378
1482.0994389291116,0.006378665193017029,0.0008397723066577045,0.005538892886359325
1482.1486071655095,0.02126187140141121,0.0007118937189119366,0.020549977682499276
1483.7490852801625,0.006772128854778317,0.0018036267049728342,0.004968502149805483
1484.4770804467344,0.14270174394830504,0.008421567043040229,0.1342801769052648
1484.7488562221329,0.12252739248843439,0.01119536472344316,0.11133202776499122
1486.103129785924,0.12146523594540037,0.008669644325026593,0.11279559162037378
1488.2208678033344,0.033330350599309305,0.006220550560778414,0.02710980003853089
1488.9879228120808,0.0061632115855391285,0.000595720794283343,0.005567490791255785
1490.3937626998736,0.05153436673930801,0.0032297482641603834,0.04830461847514762
1492.5046324264613,0.005037054871648147,1.093222519634794e-05,0.005026122646451799
1493.7802755166529,0.02701137666975184,2.666028881805175e-07,0.027011110066863662
1493.9200210264344,0.026749351434308854,1.8242758776677756e-07,0.02674916900672109
1495.5139918593813,0.012911376896279225,3.982442918707008e-05,0.012871552467092155
1496.759114847517,0.00875422433996281,5.490981862415344e-05,0.008699314521338656
1499.3913281570694,0.0020484962580878553,7.070649782241619e-07,0.002047789193109631
1501.4526141444735,0.0023059005299760752,7.604473695467768e-05,0.0022298557930213975
1503.124966485796,0.001915845230851476,0.00020696540798819624,0.0017088798228632796
1505.007058325688,0.0006374833365749194,4.706301218288747e-07,0.0006370127064530905
1505.9893160480776,0.004904499407225613,5.471403097039964e-06,0.004899028004128573
1506.459804345262,0.00024555643578356117,2.32438742659122e-05,0.00022231256151764898
1519.2892230458938,0.008653863659842281,0.0008699955439782026,0.007783868115864078
1832.2921607777396,0.10045461838033376,0.03710585678444165,0.06334876159589212
3021.519267105877,0.032416650671987804,0.02822774783539399,0.0041889028365938155
3021.7440817883576,0.00038045342410510005,0.0002633043951018207,0.00011714902900327935
3022.9209039370867,0.12778437010191881,0.1179257371365477,0.009858632965371105
3023.6665546028125,0.08540544555709381,0.07680415330353096,0.008601292253562844
3023.803553241646,0.2447508579804879,0.2368484901774403,0.007902367803047606
3024.6022159881145,0.6790266301506668,0.6551839928396935,0.023842637310973237
3025.5778671172147,1.9249019875146487,1.9066269951645625,0.01827499235008628
3026.127232635439,1.5076572543241895,1.4592439626404392,0.04841329168375029
3026.6122433770283,2.3158246953113095,2.275732753097813,0.040091942213496254
3027.3648327833357,0.10608045159040588,0.09613902500498954,0.00994142658541634
3029.303400046586,0.12015416430389558,0.1165951248218812,0.0035590394820143936
3032.6749473305063,0.337001690284238,0.31701584646031683,0.01998584382392113
3036.193195840472,0.018053771044025346,0.011806893679501516,0.006246877364523829
3036.412542565146,0.2191658240623428,0.1979771401900183,0.021188683872324494
3039.528782460673,0.2043662475485362,0.18002750397544473,0.024338743573091466
3041.059442240886,0.30619726026172733,0.27996088512589956,0.026236375135827772
3042.0126497771053,0.3272310420897785,0.3034913023930265,0.02373973969675197
3043.085639792883,1.403604737918955,1.1454481855476866e-05,1.4035932834370994
3044.3676632673046,0.07289801127974309,8.694281664696804e-06,0.0728893169980784
3045.4759817893755,0.4934077680740605,0.39094620256123747,0.10246156551282301
3046.3969838478392,0.5205984489074431,0.05489824605671323,0.4657002028507298
3046.935111677004,0.8601697624106207,0.0019663449130073157,0.8582034174976134
3049.072765500339,0.1818227599530795,0.14659043397981542,0.0352323259732641
3049.6625974531153,0.9069954407483352,0.89953696453652,0.007458476211815158
3050.338555730666,0.893074444680145,0.8859400378213328,0.00713440685881222
3051.6394450009225,0.5357790597520673,0.4743503595898744,0.06142870016219284
3052.975197281168,0.027977296223392886,3.2290465355285696e-05,0.0279450057580376
3054.384331493804,0.22937969169518613,0.13041433288932983,0.09896535880585629
3059.174831688366,0.031817490252210125,0.027165347601454875,0.004652142650755252
3063.387764674902,0.1648167886507614,0.0007813177104684705,0.16403547094029294
3064.7394023778515,0.12300627595754177,0.007833749166246375,0.11517252679129539
3067.0320681696458,0.2795868914208934,0.2607856609414973,0.018801230479396094
3070.7530731493634,0.005406829129150663,0.002461200777786674,0.0029456283513639896
3076.417325392075,0.10369472671915657,0.002276967196526213,0.10141775952263035
3077.0795543908157,0.028280792068003918,0.0013122876848029028,0.026968504383201013
3081.6996999738344,0.006778235126657699,0.002994208165789514,0.0037840269608681847
3086.5007336753993,0.04842091854124059,0.0068736311240186285,0.04154728741722196
3087.48964614759,0.13035477502694898,0.005329181625848252,0.12502559340110073
3089.90604297402,0.01490733769780751,0.01323526156415401,0.0016720761336534997
3092.444697032667,0.28052035448703144,0.11812583365948469,0.16239452082754674
3093.501933149099,0.39399289190537934,0.3292411201858127,0.06475177171956666
3099.7785906893114,0.14158786639899204,0.02517339796229002,0.11641446843670201
3112.563315673574,0.12835077886796337,3.0879552349300273e-09,0.12835077578000814
3113.4006906713407,0.12887571369635661,3.114003766428374e-08,0.12887568255631895
3117.881170964247,0.011835813730907231,0.001056678363590485,0.010779135367316747
3120.822607859833,0.41027866343569896,0.06296421236940705,0.34731445106629194
3121.461444195219,0.4074569408323125,0.062094478879550795,0.3453624619527617
3144.8251484105813,0.14261156790178744,0.03006867014279836,0.1125428977589891
