frequency_cm1,total_intensity,isotropic_intensity,anisotropic_intensity
1.9895302201818292,0.0,0.0,0.0
1.0572886161211512,0.0,0.0,0.0
2.81068550672792e-05,0.0,0.0,0.0
2.475124749591045e-05,0.0,0.0,0.0
6.1453951997133336e-06,0.0,0.0,0.0
1.2774242554394521,0.0,0.0,0.0
8.285879366817426,0.014970566615774046,1.1604149395554217e-05,0.01495896246637849
16.907660376992947,0.004418649001369589,9.938485653222346e-07,0.004417655152804266
20.480242234181706,0.005223158149617622,9.521075431342283e-06,0.0052136370741862805
47.621184379550726,0.003714781241754826,0.00023844586168354,0.003476335380071286
72.11861609820383,0.007565115373745456,6.942713627586237e-06,0.00755817266011787
91.67599273772798,0.004350522769636215,5.996302758029747e-06,0.004344526466878185
95.54737140109351,0.008555501713029628,0.0020032512081842166,0.006552250504845412
129.760465001632,0.0068334132431624285,9.347135110225838e-05,0.00673994189206017
172.74620250679138,0.006480661878534483,0.0031042294600773786,0.0033764324184571044
198.80266029413983,0.007267622286620795,0.001003169777279842,0.006264452509340953
222.23262684903335,0.009093102085128186,0.0010400637835798307,0.008053038301548356
241.0371913933834,0.009485392471054272,0.0008273203798461207,0.008658072091208151
278.1377586893135,0.008087163989362697,0.004896031391615616,0.003191132597747082
285.5011979207815,0.0025649262741658267,0.0012089816143676293,0.0013559446597981976
332.22371568363144,0.0024167262408770827,0.0004213128592034157,0.001995413381673667
364.23246466891453,0.013519230538001591,0.0043812237913946036,0.009138006746606989
375.6881978180159,0.01677254082037096,0.013848766759178635,0.002923774061192327
404.90297317113635,0.007173578600402847,4.2285737748109134e-07,0.007173155743025366
415.11494621216514,0.0002123466856511259,5.080723082213402e-05,0.0001615394548289919
445.7006094540777,0.004988253691849879,0.0033629355585564585,0.001625318133293421
474.1865407296223,0.00457571075316041,8.785167863196896e-05,0.004487859074528441
511.255059440917,0.002460633951303771,0.00020212739569338577,0.002258506555610385
543.1615639533632,0.012677181696779213,0.008352172585351977,0.0043250091114272375
566.4579911393562,0.017695962707092214,0.008646464675946638,0.009049498031145577
585.2056554863392,0.016837738374064836,0.0029897679140363036,0.013847970460028534
602.5978760537155,0.008960637575025852,0.0021338553134185073,0.006826782261607345
634.2985208872171,0.017552037888737906,0.0001874987386309834,0.01736453915010692
654.9208153627949,0.012233524574437653,0.004856017776036164,0.00737750679840149
718.0029764847034,0.00041298960848574367,0.00023930727310529195,0.00017368233538045174
743.0126509932958,0.05725897727169817,0.03787622869639255,0.019382748575305617
756.3844004000744,0.03270527206728451,0.027048445991682508,0.0056568260756020014
770.6134767150303,0.013323900403754654,0.009807642732334657,0.003516257671419998
821.6163635351201,0.003277981822026581,0.00033553017723503856,0.0029424516447915426
838.6432309577859,0.014912099363235475,0.011734005928672806,0.0031780934345626696
869.9154038212741,0.058283130576047254,0.05095837660696375,0.007324753969083508
874.6598455774299,0.006559973158039788,0.0038799230951421827,0.0026800500628976053
890.6734658706259,0.025774658478777662,0.022752581319697405,0.003022077159080257
938.1542070091768,0.003110383204057136,0.0020029197121406023,0.0011074634919165337
954.1765721267436,0.006815088861822706,0.00460711122119614,0.0022079776406265655
956.6006660841142,0.02482611961205165,0.02051875797484417,0.00430736163720748
978.7159746862136,0.014908140777610707,0.008723745433022822,0.006184395344587885
983.8115577177244,0.008028957531810649,0.005630293617204344,0.0023986639146063053
1010.6869380205427,0.0003357612279911437,0.00016996947366454445,0.0001657917543265993
1025.0150676301612,0.08869027643624668,0.0698914948979479,0.018798781538298785
1029.0488796533218,0.08493004155259858,0.07210029917035013,0.012829742382248446
1035.8705295324523,0.019886367950812257,0.017768330916501932,0.0021180370343103234
1060.8109712477633,0.05598193666808971,0.03775335655628114,0.01822858011180857
1067.7908609090987,0.11080820720607992,0.053641909300675666,0.057166297905404256
1087.4891057549216,0.028139756236052096,0.01621538263242872,0.011924373603623377
1117.7036204427172,0.007840142938127367,0.0037328487158977464,0.004107294222229621
1149.729999209148,0.0031429135379745852,0.0005386087785785496,0.0026043047593960356
1175.4623394389955,0.01913044880848072,5.93765818593252e-05,0.019071072226621397
1175.8674833322984,0.003345779881630495,2.36969287331288e-05,0.003322082952897366
1195.151066153478,0.013923041118464806,0.012228136684895278,0.0016949044335695278
1205.5288559116852,0.030884083676228413,0.005786786428724907,0.025097297247503505
1216.2544841147496,0.03596401241994583,0.022452969708198732,0.013511042711747098
1233.8603817994956,0.0207999129948732,0.0045942518461877975,0.016205661148685404
1246.6706985654569,0.11332434074359793,0.09092728306900205,0.022397057674595874
1262.6071784373137,0.07195593319501598,0.031187515355410415,0.04076841783960556
1266.2284069811626,0.017673278183947923,0.007577338504586398,0.010095939679361525
1287.8369743321343,0.01799072636757345,0.0004947843774964733,0.017495941990076976
1309.448340961104,0.03231585119620376,0.02802988185901563,0.004285969337188133
1314.6640139035346,0.15376267534444243,0.12645228082932522,0.02731039451511722
1317.1133203958072,0.007534831617521227,0.005649546769529209,0.0018852848479920187
1355.9540593989243,0.009793515402764009,0.005403454430268817,0.0043900609724951915
1366.630344148349,0.1285557779326588,0.10705340261059178,0.021502375322067006
1418.1185574960696,0.04583254425506534,0.012156671117011372,0.033675873138053966
1456.2081157452096,0.04014622990288544,0.014922867850411647,0.02522336205247379
1464.6898261906538,0.0037161496442242497,0.0016125722401455986,0.002103577404078651
1493.3038272073488,0.017047323412925197,0.006825803066531489,0.01022152034639371
1496.6834985235269,0.03082743760014106,0.00012936902367639288,0.03069806857646467
1499.7717463181116,0.020791761774078203,0.003830412969731244,0.016961348804346958
1505.5229848073755,0.022230876339669702,9.785054782388784e-05,0.022133025791845815
1509.34508365268,0.02568590689316129,0.018620767669404497,0.007065139223756794
1547.904796749218,0.006362437513992897,0.0016487458923408623,0.004713691621652035
1568.9495538812878,0.039037599321571234,0.028900754355569908,0.010136844966001323
1663.5434395586992,0.04086615536730652,0.016716728372963452,0.024149426994343064
1664.0300856546298,0.0408168624741085,0.00021844487653679972,0.0405984175975717
1684.4823993071204,0.3978325675256332,0.05400678935117003,0.34382577817446314
1687.8278928522045,0.16799905768562082,0.026011553021789136,0.14198750466383167
2403.625860372343,0.4838613428002085,0.31526214033801725,0.16859920246219123
3019.1648593371665,0.7609212134397423,0.6360385444513988,0.12488266898834342
3046.779688097454,0.7547824208489259,0.7334201707389633,0.021362250109962646
3077.330162245742,1.1181997080040782,0.9808482520967883,0.13735145590728992
3107.590382107639,0.21194399608528902,0.1035561080097101,0.10838788807557893
3108.9612743523107,0.23242088289090546,0.002043499077343181,0.23037738381356226
3127.8347989932877,0.23415866493530912,0.02914279258820167,0.20501587234710744
3170.768140867951,0.4710320193051466,0.16226132413564456,0.308770695169502
3185.2970188201857,0.19499375773256813,0.06167425263222262,0.13331950510034551
3195.552327121621,0.40405770528543017,0.049437005510880976,0.3546206997745492
3200.101976856161,0.36195572694459177,0.12873140930713525,0.23322431763745655
3206.014442705603,0.4188624674397533,0.014000566402288599,0.4048619010374647
3217.2368357188448,0.7422771205664638,0.5515698429699998,0.19070727759646405
3224.45927598228,0.5786965008037988,0.4217567358581835,0.1569397649456152
3226.2733848264866,1.0139690089819848,0.8254937958953048,0.18847521308667992
3233.3751039915837,0.3621026470186249,0.2343458455765843,0.12775680144204057
