frequency_cm1,total_intensity,isotropic_intensity,anisotropic_intensity
1.4521948784400545,0.0,0.0,0.0
1.1159759247328795e-05,0.0,0.0,0.0
2.520909280061517e-05,0.0,0.0,0.0
2.8691455781189815e-05,0.0,0.0,0.0
0.05338613867896391,0.0,0.0,0.0
1.5796389528347503,0.0,0.0,0.0
13.803039647452701,0.0023226300962386633,5.567555952078696e-06,0.0023170625402865845
30.080100458887358,0.01771877868823687,0.00010994713515707708,0.017608831553079796
41.738138849805765,0.03885718963308588,0.0006778462364701095,0.03817934339661577
49.36452752318196,0.036409336900403794,2.942669278811461e-05,0.036379910207615676
62.12548198635017,0.022262282907788415,0.0006629192482574832,0.021599363659530933
67.98601827117382,0.00872943056899032,0.0008556371549045584,0.007873793414085761
73.19720337039716,0.02724239633864989,6.001424501978651e-06,0.027236394914147914
88.54166075063588,0.0028549332412191974,0.0003438005505660533,0.002511132690653144
211.58428653038015,0.00715719267993314,0.0008118685257359456,0.006345324154197194
218.89289428197648,0.010562205374656231,0.001535661051887181,0.00902654432276905
236.34727278282253,0.013714220354376897,0.0005331893195912471,0.01318103103478565
277.1226353482703,0.03774904651982369,0.036988111775066015,0.0007609347447576748
286.3323195155659,0.009113933255059343,1.4655725886775265e-06,0.009112467682470666
301.9693204271659,0.00975966262915539,0.0005670829618732639,0.009192579667282126
328.6805617239655,0.009766601433061677,0.0021965826287867448,0.007570018804274933
342.8686339261958,0.005077636717792621,0.00018983498748107014,0.0048878017303115515
383.27222714465074,0.029026028089081682,0.020883240449544576,0.008142787639537106
416.09049349907605,0.0005430752731313792,2.8825269295840265e-05,0.0005142500038355389
417.7144961115313,0.00032048135573221344,9.050553437956531e-06,0.0003114308022942569
422.0046858008458,0.0002744462376863794,2.1432009622373106e-05,0.0002530142280640063
482.18755604793677,0.002205729648915808,0.0008829042761085906,0.001322825372807217
504.94504121931993,0.005201861499467811,0.0046430745376551,0.0005587869618127113
520.0910411867211,0.0005313517054411517,9.744259603676334e-05,0.00043390910940438834
539.7231410746999,0.003672549200078434,5.0679994107503334e-05,0.0036218692059709306
576.4554085242286,0.003163542141551384,3.1847117045708414e-05,0.0031316950245056756
633.1556781450618,0.019638033601453532,0.0017660492962280401,0.01787198430522549
634.0613060018228,0.028258448438381125,0.00023007796082185068,0.028028370477559274
634.3830143043814,0.023747048576119856,0.0002466448818222134,0.023500403694297643
652.5539029771711,0.0193906587191927,1.3852547023650673e-05,0.01937680617216905
656.4046286803647,0.025603343695068864,0.005271543321052683,0.020331800374016183
704.5214984804405,0.07905848423461427,0.06783502144671917,0.011223462787895103
720.6795639675466,0.00035437669709927094,7.475606973689744e-05,0.0002796206273623735
721.9241400460476,0.00021990477478247167,7.449703903435117e-05,0.0001454077357481205
724.1396488413642,0.00034865653212669555,9.143921898865916e-05,0.0002572173131380364
773.627655174087,0.0006507962405335338,0.00015481613915699306,0.0004959801013765407
786.4940859434697,0.0051814421400230145,6.7625410403099444e-06,0.005174679598982704
790.7922431673232,0.006576416670791334,8.124039444653795e-05,0.006495176276344796
873.7694747829513,0.05225458520256974,0.01159948078876674,0.040655104413802996
877.2308764137472,0.005601072201403474,0.0006152111182895534,0.0049858610831139205
879.0855718283391,0.0026580329310328926,3.053794864516422e-05,0.002627494982387728
882.2436934079595,0.005914560507731741,1.444716680442826e-06,0.005913115791051298
928.703693893576,0.03359850791739405,0.0017237924283266285,0.03187471548906742
935.0468006362127,0.0339494294989328,0.004288132455275408,0.02966129704365739
963.3766492610517,0.007508419502084197,0.004790637074715732,0.0027177824273684646
975.1382577000135,0.012768441570378309,0.0003636700797048991,0.01240477149067341
977.4071153342672,0.013089429416013152,1.5440907392141637e-05,0.013073988508621012
1016.3203778308982,0.000750778680004346,7.829890226848527e-05,0.0006724797777358608
1016.6889479842235,0.0007142366363492073,2.2629207309710698e-05,0.0006916074290394966
1018.8015430810003,0.0008961341620661109,1.7604811743212357e-05,0.0008785293503228986
1028.204183895069,0.035063419093840004,0.01282140479522639,0.022242014298613617
1028.6169081116818,0.033029513364560885,0.006243786894703067,0.026785726469857815
1029.061518746737,0.3499891083231955,0.34505174353468365,0.004937364788511877
1032.7369822230703,0.010432672513183014,0.009405611244459133,0.00102706126872388
1033.385485337091,0.001483305096110515,0.0005437778342035518,0.0009395272619069632
1033.5479277129764,0.01572778779952552,0.01538621184888887,0.00034157595063664904
1067.6284165577777,0.49315876131230996,0.48789092389067223,0.0052678374216377135
1070.2054223818602,0.022029757721573184,0.0024068110570384933,0.01962294666453469
1071.2908671810485,0.026672610925069104,0.00468118961157169,0.021991421313497416
1107.051991398281,0.046432504009275406,0.042283857914885724,0.004148646094389685
1120.0709202521382,0.002992103642991835,0.0003214135692130085,0.0026706900737788267
1124.7379210507556,0.008772089842322561,0.0050277526103942516,0.0037443372319283094
1137.9876599372878,0.05270250003383501,0.05211269986102461,0.000589800172810399
1175.1987972032377,0.012392949238323315,0.008529394745637863,0.003863554492685452
1176.386200532079,0.018774867580546886,0.005498223245825104,0.013276644334721782
1178.183784652759,0.016313880341801427,0.0008422729334149877,0.015471607408386438
1204.0154815951132,0.25799193688413946,0.25118193500774366,0.006810001876395809
1214.9844676231985,0.04109949889291713,0.006219123142311282,0.034880375750605846
1216.3056598970263,0.0368120327593663,0.0011136993815502765,0.03569833337781603
1221.736013804341,0.0427674077952918,0.0002098241662688699,0.04255758362902293
1245.4313580876592,0.02424633346456728,0.001821603749150019,0.02242472971541726
1260.2365371574426,0.05251559819347649,0.029557745982512266,0.022957852210964223
1309.2853468430944,0.014708831155876923,0.007790210915112699,0.006918620240764224
1312.8948010842487,0.008322557079364105,0.00017650398359839425,0.008146053095765712
1316.4612722339327,0.009912148185265793,0.004057178387947474,0.005854969797318319
1362.3655944024883,0.004442207336516002,0.002384563811711536,0.002057643524804466
1363.646090908118,0.002833804757732114,7.035575102905668e-06,0.0028267691826292084
1368.8680048510464,0.0023178254022206486,1.5670899381441674e-05,0.002302154502839207
1492.371594419805,0.006738943215568422,0.00143311472555417,0.0053058284900142525
1493.126032502237,0.006296550241132385,0.0004678848666418263,0.005828665374490559
1495.7596575388757,0.004289238091209953,0.0007842670631925133,0.003504971028017439
1544.999523114326,0.00800683436024677,0.0025911904445819643,0.005415643915664807
1545.123306266476,0.006009548825931966,0.00035138400939423235,0.0056581648165377335
1547.5440718810657,0.009079933716194534,0.001001255472639974,0.00807867824355456
1660.5615449074485,0.022203999332246156,0.0002801740688181131,0.021923825263428044
1661.961491315228,0.07702617956744427,8.863428052576588e-07,0.07702529322463901
1664.5171927575448,0.0887329591128648,0.00038371226303814734,0.08834924684982666
1679.6901369973466,0.09976988965393134,0.00011332655400570342,0.09965656309992564
1680.3130905767346,0.0971246428462969,0.00019876593029577965,0.09692587691600113
1684.221626508976,0.09727992828650514,0.0644665122472768,0.03281341603922835
2143.642718897114,0.4043261385789182,0.1540308714510791,0.25029526712783906
3194.0243945417396,0.12652387456962405,0.0013051139806585113,0.12521876058896553
3195.539425214534,0.1668083064444489,0.0010222318435728988,0.16578607460087602
3195.8836222077784,0.1230055674131983,0.001352207677305863,0.12165335973589245
3200.2182190623594,0.31285876471946866,0.007497180494291496,0.3053615842251772
3203.1460752749617,0.31631623929455166,0.0076105299037487716,0.3087057093908029
3206.8272723971068,0.4851551494325642,0.00036354076416379635,0.48479160866840043
3211.495025789541,0.38932753504111806,0.026099824848183593,0.3632277101929345
3212.5827437577077,0.3127652724771229,0.01572991796917726,0.2970353545079456
3215.818500791372,0.3404746947399749,0.14730834417719696,0.19316635056277792
3221.91675467912,0.6095761685920866,0.38318307804599033,0.22639309054609635
3222.339895236145,0.944506193243388,0.6848565264280374,0.2596496668153506
3224.7003130699086,0.11989445043295435,0.09042801526866699,0.02946643516428736
3228.979984539825,1.042893632720256,0.7859036907592637,0.25698994196099245
3231.5980005021956,0.7685277798659432,0.6128580233687584,0.15566975649718484
3238.1239686762697,0.6171866656133324,0.5235014291473807,0.09368523646595162
