frequency_cm1,total_intensity,isotropic_intensity,anisotropic_intensity
3.20226414130613,0.0,0.0,0.0
1.3586152023461038,0.0,0.0,0.0
0.6248011302608398,0.0,0.0,0.0
1.8911800761987964e-05,0.0,0.0,0.0
1.331685962716541e-05,0.0,0.0,0.0
2.239050401050299e-05,0.0,0.0,0.0
63.999320802590304,0.0005234952828249896,1.267557547824574e-05,0.0005108197073467438
109.22728096709581,0.0007823262899241159,5.319490755567722e-06,0.0007770067991685482
121.33337845697032,0.0003870120900828601,8.331163146235376e-06,0.00037868092693662473
152.79513323476863,0.0025557332131887775,7.073094560650985e-05,0.0024850022675822676
156.3334254393385,0.0006685646636963074,6.632246195190264e-05,0.0006022422017444047
187.74531593818327,0.0009447033150536681,8.04637653812146e-06,0.0009366569385155466
212.46362968535422,0.0020801425372957683,0.0002489621933785973,0.0018311803439171712
226.73797094364943,0.002666311372410433,0.00016442216037847754,0.0025018892120319556
246.28810339746715,0.0020423149994950964,0.0007246206135438979,0.0013176943859511984
262.2494110655611,0.0007552082723463938,0.0006437964409235224,0.00011141183142287141
274.3643654830067,0.0010083409125296882,0.00024901130416688904,0.0007593296083627993
298.2931311365041,0.0022360542033674985,0.001811180990745817,0.0004248732126216817
311.45962071789114,0.013030690474675127,0.010597971810604786,0.00243271866407034
317.35237838127404,0.011994306979231758,0.010826220065374533,0.0011680869138572252
383.1265575449803,0.005580159669758525,6.656024090231758e-05,0.005513599428856208
393.015322269499,0.0008077263225945953,0.0004673824813684348,0.00034034384122616046
441.9877387612739,0.001292901470113386,0.0005362836141085728,0.0007566178560048132
459.2461887090678,0.0029002141377603282,0.0020758103721278806,0.0008244037656324474
466.71624662221706,0.01700971613601699,0.014035624019166635,0.002974092116850356
503.803005782627,0.0022420806603094595,0.001023327463962846,0.0012187531963466134
545.4084691118113,0.017543240965783892,0.014345935943652986,0.0031973050221309057
719.463996489396,0.002983640017231689,0.00022165534421817116,0.0027619846730135176
742.0940635583332,0.002100219872822746,0.0005253295323195841,0.0015748903405031617
761.8157546933329,0.013739328662613558,0.009129983599459076,0.0046093450631544824
772.3616587279176,0.025897149315048964,0.023746556050198084,0.002150593264850879
801.9017314007249,0.0029466247901542685,0.0002611273887852974,0.0026854974013689713
833.6682732790284,0.013642873766637528,7.196214996540614e-05,0.013570911616672121
849.6731973274211,0.0027258516921744758,0.00010236648591024996,0.002623485206264226
894.5811588191663,0.017355006507911976,0.004466115221335055,0.012888891286576921
902.3328011583603,0.05755309331303146,0.05153988035673203,0.006013212956299429
940.053189273683,0.025177644732712,0.018101920586350094,0.007075724146361907
959.5380677186279,0.006578908801518065,7.4482543661655e-05,0.0065044262578564105
975.6531502894146,0.00805580372325807,0.0030720027549661906,0.00498380096829188
997.810410663175,0.004012506529258263,0.00010662964750951753,0.003905876881748745
1028.737873964455,0.004857671731438327,9.646168862738386e-05,0.004761210042810942
1047.311534778544,0.019539122292088644,2.9142384593963386e-05,0.01950997990749468
1052.0395757369781,0.021193593085482163,0.01022496003557864,0.010968633049903522
1062.3808642803378,0.00812316089061556,0.0011945532421940976,0.006928607648421462
1084.0450690026614,0.013443625520531645,0.003979005623013435,0.00946461989751821
1091.1505905814374,0.013664876431000663,0.002463836946228098,0.011201039484772565
1101.1413075991377,0.011430588249319976,0.0007098974010160935,0.010720690848303883
1108.091996255769,0.010653344190973909,0.00023777100988634048,0.010415573181087568
1117.3126958444902,0.01096630066290652,1.5428588166366128e-05,0.010950872074740154
1124.627833523244,0.011211450695459254,0.0002212259731676137,0.01099022472229164
1147.7641568125032,0.023413305035862825,0.001822223773792387,0.02159108126207044
1167.7006274727096,0.0031098129711371347,0.0002694344914600583,0.0028403784796770764
1173.685657200962,0.014778984491130864,0.003047029487269097,0.011731955003861767
1197.772301580349,0.004746236864710664,0.0004585840052824709,0.004287652859428193
1215.761437159209,0.0088455790311217,0.0026604549985505027,0.006185124032571198
1232.561263306302,0.026088807991613686,0.016151126490283656,0.009937681501330028
1259.3876672307333,0.007590562395985689,0.0024398687512539956,0.005150693644731694
1266.0013521463216,0.010086084921483758,0.003969934169894384,0.006116150751589374
1283.2312295917961,0.003764734196153512,0.0007207972316233933,0.0030439369645301187
1302.1360333525595,0.005658376795870346,0.0001577940534284429,0.005500582742441903
1310.6851362377593,0.015048712691046478,0.011345168712816659,0.003703543978229818
1320.951066006528,0.009939409746606537,0.005657971291074277,0.00428143845553226
1326.6684414963015,0.010375982770688776,0.00024943752741133865,0.010126545243277437
1334.1307899103726,0.02890650813659114,0.003224114086225791,0.025682394050365348
1344.2248758686603,0.05105385883335531,0.00033655836396661193,0.050717300469388694
1352.8442784292156,0.002023474627799577,0.00024685229573622223,0.0017766223320633547
1359.200827884,0.03813385804424465,0.00010657563313288232,0.038027282411111765
1365.7572591528622,0.011564306146884057,0.0006086561048889705,0.010955650041995087
1379.7366064014427,0.0068816748954104836,2.8082190795141767e-05,0.006853592704615342
1384.8228886415347,0.006781970700680649,4.371308337401465e-06,0.006777599392343248
1389.8479428813234,0.003277578437063661,0.00012997167282971297,0.003147606764233948
1396.1983480207027,0.003850511792995709,0.0005715279946881478,0.003278983798307561
1404.8227139973158,0.0054025312167579964,4.437719739804502e-06,0.005398093497018192
1410.3305379612086,0.00583430665416455,0.00016358378568584017,0.0056707228684787095
1424.1819798815225,0.004518764053369667,6.767979240704189e-05,0.004451084260962625
1431.7341329869519,0.003508802428352416,3.3159678912802826e-05,0.0034756427494396134
1479.6649631308442,0.0362105798057518,1.2898616250419302e-06,0.036209289944126755
1482.486056302664,0.02020963983183688,0.002652855275488039,0.01755678455634884
1484.3827074734197,0.03649467712694643,0.0004606111586747459,0.03603406596827168
1486.2340705598358,0.011560689633476912,0.00044051425671836746,0.011120175376758544
1487.5548801472971,0.0029274423968232957,0.0004389111323777536,0.0024885312644455423
1491.8580812110624,0.009639896171625197,0.001036291993004039,0.008603604178621159
1497.1409775972377,0.013634625944897488,0.00019555636831878858,0.0134390695765787
1499.1673774802666,0.03536606407475782,0.00035511032946247104,0.03501095374529535
1502.1767733277254,0.008537270517616165,4.6213874528806625e-07,0.008536808378870877
1505.3761597417601,0.03769500510837873,0.00037465912644028143,0.03732034598193845
1529.7015604351025,0.006609669080838191,9.74348147271841e-06,0.006599925599365473
3008.9348724479523,0.4736638422841076,0.3872453023461631,0.08641853993794446
3031.2430547528916,0.6246566707637865,0.4758802837686556,0.1487763869951309
3034.5040245398636,0.24207465017715912,0.0797053358965648,0.16236931428059434
3037.163823346105,0.21764333110550213,0.01979104248002549,0.19785228862547663
3038.040186896374,0.44608429661169957,0.38138527879212597,0.06469901781957361
3040.2199926066055,0.12874525691050276,0.007697912125265204,0.12104734478523754
3042.4828381879975,0.1350382073825741,0.026806000469282762,0.10823220691329133
3046.5197131627124,0.8632325914102064,0.7738013837196849,0.08943120769052143
3049.6467518403983,0.20197984190129073,0.15142726676114637,0.050552575140144364
3054.478497526439,1.547302992787772,1.5045344350223915,0.04276855776538041
3059.2235333949616,0.41904591644755285,0.3310683696205409,0.08797754682701191
3066.0993804877903,0.7190310946691988,0.5849269121967299,0.1341041824724689
3070.6365168439606,0.4599388779463796,0.010871236862497144,0.4490676410838825
3074.5238913374324,0.4741234140897233,0.004201363090898284,0.469922050998825
3079.3407960778063,0.04948896555455315,0.00048345392563149176,0.04900551162892166
3081.1218434794623,0.48246858681975585,0.17827776731464579,0.30419081950511007
3085.9670421786127,0.08883288303165354,0.00020584764791570017,0.08862703538373784
3089.917463301186,0.44817719645953785,0.21066155119038366,0.2375156452691542
3095.345466060433,0.2600772458107735,0.05524424461275167,0.20483300119802184
3098.5356710716933,0.9978978330721819,0.8319143087063745,0.1659835243658074
3099.470137770285,0.22133618097842322,0.09654077255212527,0.12479540842629794
3114.1360805011213,0.08251496071658922,0.018486076727266154,0.06402888398932306
3145.376545161459,0.15359453919739288,0.09741957879021604,0.05617496040717685
3852.077571655512,0.32745406406952204,0.23342757198898118,0.09402649208054087
