frequency_cm1,total_intensity,isotropic_intensity,anisotropic_intensity
0.7275793812166951,0.0,0.0,0.0
2.6274596310144275e-05,0.0,0.0,0.0
6.598725144544333e-06,0.0,0.0,0.0
1.5174404625587143e-05,0.0,0.0,0.0
0.17846138577401224,0.0,0.0,0.0
1.0121883777553993,0.0,0.0,0.0
17.799509125155904,4.1466323476271105e-05,1.573649107817642e-09,4.1464749827163286e-05
18.89364771041313,0.0015558376155665689,1.0745051166794658e-09,0.0015558365410614523
31.528863461533383,2.60529131040206e-05,7.101175262530355e-06,1.8951737841490246e-05
38.9042692148219,4.8655307502606014e-05,1.7117462818399282e-08,4.8638190039787615e-05
44.23077057839675,0.0030461062947438706,2.0455983844452402e-07,0.003045901734905426
87.84048273925625,0.000272389342532154,1.1566558850045348e-10,0.0002723892268665655
92.94335619176114,4.00187239454434e-05,2.3768228642232356e-08,3.9994955716801174e-05
93.12215770929333,0.00012829553385220878,5.500993165071903e-08,0.00012824052392055807
141.17896602503393,0.0015998137242589038,1.6039951615699533e-05,0.0015837737726432043
147.31320410912357,0.00015394773055640124,1.2560632962221126e-05,0.0001413870975941801
150.61964229350792,0.010474354980406969,0.007474279284171731,0.0030000756962352392
154.08241180897306,0.00029495246120309125,7.82877352652294e-05,0.00021666472593786184
154.4442096525447,4.392140611664158e-05,1.2064234938826263e-06,4.2714982622758956e-05
178.89476039826482,0.004329561884046442,0.002099242913470338,0.002230318970576104
179.76671160030145,0.0027619729671922617,0.0013090015138742812,0.0014529714533179803
183.62271747466716,0.00016848623958444,7.296769115267727e-05,9.551854843176273e-05
257.73165288569953,0.0008164195670011103,4.391124836586913e-09,0.0008164151758762737
318.86665125064803,0.007849092846243888,0.005748504266447288,0.0021005885797965996
324.2668873689313,0.00273815195216808,3.613254749804929e-07,0.0027377906266930993
371.7979393311253,0.0004185530469479282,2.7522265474183208e-09,0.0004185502947213808
424.18225360774045,0.004609183916841123,0.001832484209874606,0.0027766997069665175
495.341487032056,0.01486914106540967,0.009839177084265962,0.005029963981143708
514.7498501571191,6.587000342236356e-07,1.6760386242203896e-08,6.419396479814318e-07
587.3653446537909,0.0005844044764073075,3.063873119370036e-06,0.0005813406032879375
587.4621515320954,0.0015371777450623367,3.623125799464048e-06,0.0015335546192628727
708.8106803555993,0.009869613565280407,3.3586507521981644e-06,0.009866254914528208
709.2034242323982,0.0007973179951972555,0.000562703046031299,0.00023461494916595649
730.4252886675816,9.254633260558997e-05,1.2342687066403578e-07,9.242290573492593e-05
739.8866931053111,0.0002162360750525157,7.834317785558501e-07,0.00021545264327395985
775.8075929025293,0.0005656423544993807,4.176809710024217e-07,0.0005652246735283783
837.1054339946093,0.000235412485868679,7.154905298990138e-07,0.00023469699533878
911.9319174341474,0.0006306493729321099,0.00026584381881420804,0.00036480555411790195
912.4578854359022,0.0967554405368623,0.06751151884432323,0.029243921692539077
917.1049092462592,0.00044918641706117885,2.9942449906786284e-05,0.00041924396715439257
1006.3117221096537,0.00015002352161468626,2.6367138620549877e-05,0.0001236563829941364
1012.9530546945148,0.010597519814103517,0.0017351711795149545,0.008862348634588563
1023.5851022486207,0.0017416990993430904,1.0259871323657462e-08,0.0017416888394717668
1044.2291491907513,0.007782879583853084,8.217110116281775e-10,0.0077828787621420726
1056.8832615061378,0.0009061654440569087,0.0008741768719354878,3.19885721214208e-05
1084.4675106960344,0.013883362531065934,0.007253037424956413,0.006630325106109521
1089.6427876105288,0.03894833484266936,9.612713490640094e-08,0.038948238715534454
1095.4105686525304,0.004927591587907418,1.5268014724828623e-09,0.004927590061105946
1133.1259824294448,0.004285811537809804,0.000674433613942869,0.0036113779238669355
1133.6543784599983,0.18005864148409922,0.10974897338494026,0.07030966809915895
1152.7396482234344,0.003229365282845961,4.716930655111398e-05,0.003182195976294847
1177.5679876699892,0.002684467835862275,2.0102541008721687e-08,0.0026844477333212665
1177.5744541251836,0.00343936300514428,3.781670715287358e-09,0.0034393592234735646
1199.5310924914452,0.005200212116005812,5.102344133016672e-10,0.005200211605771399
1203.9747053185517,0.007075462205491366,0.0047901737852965994,0.002285288420194767
1218.088283445682,0.0002640950353838145,1.6354730880402462e-08,0.0002640786806529341
1224.7841070266193,0.011457661705382897,0.010007618122477612,0.001450043582905285
1237.3546118503436,0.002523362412917604,6.654546696105155e-07,0.0025226969582479936
1252.8172353952048,0.0011213844510931143,1.4881682558376176e-10,0.0011213843022762886
1280.0945156772927,0.004913121165026871,1.0122422797532731e-06,0.0049121089227471175
1300.4368041894957,0.0005575028018351457,0.0004397959764250868,0.00011770682541005888
1313.535823853923,4.039618169235205e-05,1.214204498111802e-07,4.0274761242540874e-05
1327.2026675344582,0.07711629851618422,1.5365820494058976e-07,0.07711614485797928
1336.5217477429717,0.01145112713910497,4.308423752728876e-07,0.011450696296729698
1337.8077170320068,5.958291954117421e-05,1.9202097323326e-07,5.9390898567940946e-05
1345.4149521405745,0.0012380040941068632,1.3831622123679843e-09,0.0012380027109446508
1385.2617948313018,0.00033129784429896303,9.358828378650227e-05,0.00023770956051246073
1413.6431989176824,9.970544252191773e-07,5.522260908866032e-10,9.965021991282907e-07
1426.2231961584687,0.003640895627580488,1.5795359079889643e-06,0.003639316091672499
1426.6410614950694,0.0043949118095690885,0.003773749805761509,0.0006211620038075794
1460.467443100241,0.0006188576261014923,1.19599929555293e-07,0.000618738026171937
1460.61651220192,0.03061534861936316,7.174520675993218e-06,0.030608174098687164
1475.876268454895,0.026965255726731207,1.1530990659976867e-07,0.026965140416824608
1475.9001564112884,0.027312076712771263,1.8954403512297128e-06,0.027310181272420034
1479.137281052917,0.002910359130544473,2.63498758666127e-07,0.002910095631785807
1479.3101376875495,0.0024162396446927355,0.0003513809904438686,0.002064858654248867
1481.9410445150356,0.0002640672106503885,1.1276314504175186e-06,0.000262939579199971
1482.1683472982872,0.08778580132619333,0.003797121188039114,0.08398868013815422
1489.5033506931934,0.01262559564061508,0.001500105170017259,0.011125490470597821
1491.4395527020504,0.015491907820330905,6.368253966112229e-08,0.015491844137791243
1491.5643196692506,0.03549426477064008,0.00010369415197289049,0.03539057061866719
1499.2905101322654,0.0002166853720043138,8.196757367893318e-11,0.0002166852900367401
1505.5815045670363,0.002177722868387546,0.0009869250109800826,0.0011907978574074636
1819.168457407256,0.0019995372769279346,5.141937320321394e-06,0.0019943953396076132
1819.6661783866384,0.058726564358697164,0.04114897883816964,0.01757758552052752
3021.993057350517,3.935368867317061e-05,2.845926288309732e-07,3.906909604433964e-05
3024.3389807178273,1.4422619023389585,1.4048959865547495,0.03736591578420895
3036.3089299271337,0.0005385342525479653,0.0002731885877060674,0.0002653456648418979
3047.1103611354215,0.6832299428935099,2.6641601742304495e-05,0.6832033012917677
3053.9439303444806,0.00015691144728619327,9.212860665471901e-07,0.0001559901612196461
3060.313892484764,0.02889116089517195,0.026558239702817454,0.0023329211923544943
3060.677046765328,2.0949434303683896,2.0396964123662684,0.055247018002121125
3068.6805666914584,0.00041809363174178575,0.00012417959382394816,0.0002939140379178376
3069.119323043766,0.022274956609031813,0.02033051084232547,0.0019444457667063425
3079.498813657774,0.08883127582809423,0.0001074201268226435,0.08872385570127159
3084.2510819984273,0.6924303587117343,0.6843714606959631,0.008058898015771237
3084.2711892683765,0.8507602108615447,0.840966843749306,0.009793367112238782
3091.079412963042,0.0014020869273211614,1.105141684734497e-07,0.001401976413152688
3092.600432898429,0.4608788417927715,0.0002179649985759551,0.46066087679419554
3112.284473048769,0.0014228756604171822,7.91010531375002e-07,0.0014220846498858072
3113.1420165572476,0.0015586373552644412,8.122434966872087e-07,0.001557825111767754
3155.291806855558,0.2188651903101017,9.297821814694885e-06,0.21885589248828702
3155.354256502467,0.2191154786372631,2.9744460678128337e-05,0.21908573417658497
3189.180325173422,0.3711673581034533,0.05137103212453905,0.3197963259789143
3189.2264446724193,0.36913145363970284,0.054404153443107506,0.31472730019659534
