frequency_cm1,total_intensity,isotropic_intensity,anisotropic_intensity
1.021821415703373,0.0,0.0,0.0
0.5216511358866369,0.0,0.0,0.0
1.3289115569022162e-05,0.0,0.0,0.0
2.7634836917076995e-05,0.0,0.0,0.0
3.071657968311498e-05,0.0,0.0,0.0
1.0962209873212412,0.0,0.0,0.0
14.974655128703086,0.02683303927452882,0.001495775827963766,0.025337263446565055
28.501991843047,0.03686519205422073,0.000981047668300628,0.0358841443859201
31.57791295848212,0.00718262731041016,0.001496704209243057,0.005685923101167103
35.97976559335786,0.011186355518561588,0.000865383240643878,0.010320972277917709
44.691514299246684,0.003278418939963569,0.0003196607042409391,0.00295875823572263
68.42162413675051,0.00448415782112396,2.29086775117034e-06,0.00448186695337279
107.88832218728287,0.01141130828631425,0.0023951288742825056,0.009016179412031745
111.39962625190724,0.006052268783173725,0.0007190472864751097,0.005333221496698615
126.78546006359839,0.013305579308433763,0.0012103591813096308,0.012095220127124131
139.04883078940264,0.0033708089838265396,0.0008203677104997501,0.0025504412733267897
160.01342144487685,0.01851360248513591,0.0001692539802810542,0.018344348504854856
197.24236215793402,0.008716855593731192,0.0002126344712388738,0.008504221122492318
215.8253121517379,0.001670070387958018,1.8887097790077035e-05,0.001651183290167941
249.61701422353096,0.007765223499076606,0.0055880559826010185,0.0021771675164755874
287.5316403607136,0.011984141591373676,0.0012146830377847383,0.010769458553588938
318.7666457667639,0.008131108777117755,0.006202310667935224,0.0019287981091825313
331.7760013019509,0.0037158116715925475,6.786063040818884e-05,0.003647951041184359
372.57984576745366,0.011498037476803665,0.00530372313188532,0.006194314344918346
414.56543802091915,0.002161386390425235,0.0014402934723794093,0.000721092918045826
416.18027163506645,0.010013789530049179,0.003476901824920963,0.006536887705128215
430.01286319519096,0.02941029043066045,0.020461271004108612,0.008949019426551836
438.7169778673851,0.002662446347824525,0.0002184127753394069,0.0024440335724851183
453.11340301716365,0.011301024440475876,0.0043597874520987095,0.0069412369883771665
507.4590695698771,0.006473738964998498,0.003465197797197334,0.0030085411678011644
555.4714387876601,0.02213677840453114,0.004571821013369849,0.01756495739116129
592.9325915924766,0.0034142527502804406,0.0015699673818221275,0.001844285368458313
629.739630309673,0.020076138437740053,1.033107075615183e-05,0.0200658073669839
632.3786617294768,0.026594127771156398,0.0007830629486381528,0.025811064822518246
646.1937928476905,0.014749537412398886,1.8758494045777544e-05,0.014730778918353109
683.9113074737509,0.01902324636523647,0.0007035805259857002,0.01831966583925077
710.624381301488,0.00035315858703936776,1.816634866782786e-06,0.00035134195217258494
717.7269769208388,0.0003068101367860966,2.1841876951534298e-05,0.00028496825983456226
739.4304337260824,0.06731600780212968,0.059737412943313625,0.007578594858816053
760.7154187358483,0.02169444720723083,0.01856876518618477,0.0031256820210460567
787.3166006769807,0.006483835152518916,2.5526510314445302e-05,0.006458308642204471
798.1349407566414,0.025459388311830772,0.0027916746245103745,0.022667713687320398
809.9368968201886,0.019268231488106052,0.008534135491698604,0.010734095996407449
837.1323563472774,0.012676130230087842,0.0033850684841334583,0.009291061745954383
866.3206557960889,0.014551633617659843,0.0019451468211325196,0.012606486796527323
874.957262110494,0.02093007622731228,0.009325000206626298,0.011605076020685983
876.4308219315292,0.002978876837782911,0.0006862367590017287,0.0022926400787811824
905.6423372686232,0.056357323789736125,0.03971034389830601,0.016646979891430116
949.1730541547059,0.03792790704089618,0.0048097980728234084,0.03311810896807277
956.9363716104988,0.054640003298647086,0.045043985088091404,0.00959601821055568
975.9908269306287,0.004601674581434941,0.004240032388708943,0.0003616421927259977
991.1051622310735,0.1158740490298393,0.03317092438901688,0.08270312464082243
1015.143332455028,0.011227643507430229,0.004199186737624631,0.007028456769805597
1018.5469571187269,0.0002108521355114349,0.00012328759010285764,8.756454540857727e-05
1027.3252252216478,0.2621138936173584,0.2236708628836399,0.03844303073371847
1029.2125944356717,0.14167666356085667,0.11994477219637356,0.021731891364483114
1036.0829861606458,0.0019336937625181526,8.91933852744423e-05,0.0018445003772437102
1037.9189997670103,0.000608858150100555,0.0003153863140374297,0.0002934718360631253
1053.3907482880477,0.11814890466212535,0.10710932679384795,0.011039577868277408
1063.5069603171603,0.034727526436267905,0.001930493642255482,0.03279703279401242
1066.476370252659,0.11821227741706895,0.11538080715791316,0.0028314702591557975
1112.9874243854522,0.025903843331395206,0.013490813278749184,0.012413030052646021
1117.262027562648,0.009792621604261337,0.007326818285163137,0.002465803319098199
1121.8513558672864,0.030388340013579585,0.027017360095398537,0.0033709799181810473
1134.4724952074266,0.03720629548573854,0.002013164128605129,0.03519313135713341
1176.5415489322172,0.03453659958882321,0.0009793053688425277,0.03355729421998068
1178.655677382099,0.023840283182758368,0.0005159223155575971,0.023324360867200772
1199.810051712886,0.018918030276929846,0.0028584398079113185,0.016059590469018527
1205.4275500743192,0.02172693519629991,0.01555032129907694,0.006176613897222972
1214.3739651149283,0.1019309623867432,0.0649958309691276,0.03693513141761561
1235.0064062746321,0.7660145964178927,0.3881851716916859,0.3778294247262068
1262.7983518927024,0.11977778771615077,0.05080419381604967,0.0689735939001011
1297.0618315319919,0.008066690580680748,0.0005167373356303646,0.007549953245050383
1318.852279248804,0.22045961697967598,0.13084325720414686,0.08961635977552912
1323.1359407103084,0.007941484413535298,0.00448440533696996,0.003457079076565339
1335.225479796559,0.022801787104910924,0.0006182347110564562,0.02218355239385447
1353.4216708726992,0.014650546053683915,0.003981143641810199,0.010669402411873717
1364.9255053311344,0.05711773114210837,0.02577436275495643,0.031343368387151946
1398.9522558338435,0.011390992760984405,0.003281779504522166,0.008109213256462239
1402.2800905787863,0.11428553122818572,0.057713661850321,0.056571869377864716
1426.2296711420756,0.005933200496164054,0.0025325830340146844,0.0034006174621493694
1481.7497939236841,0.04511645454803423,0.004734213197002516,0.04038224135103171
1492.0793814551168,0.08486116970000211,0.018472033196349946,0.06638913650365216
1494.3394359497072,0.04569680601127373,0.02754812955943194,0.018148676451841792
1495.941716526005,0.030591343471706743,0.0019441906099585441,0.0286471528617482
1506.0878250332557,0.00903528765669139,0.0026616210161781785,0.006373666640513212
1539.4562959830057,0.01243257733882892,0.0052121588783389785,0.007220418460489942
1545.3467324202377,0.0719335787803531,0.027476276214697618,0.04445730256565548
1655.2763484040725,0.12098849081250795,0.04792649792211237,0.07306199289039558
1660.0363633276343,0.05182878822342399,0.00329401341368283,0.04853477480974116
1676.9524950721554,0.3961557756780397,0.08498802985235997,0.31116774582567974
1681.4973961301116,1.1088967848675035,0.3170038895706521,0.7918928952968514
1728.0951072376479,4.484542378724928,2.1060412591526165,2.378501119572312
1788.0093079721892,0.38978600018611437,0.3181292676403205,0.07165673254579386
1797.3786933038689,0.08058858162481373,0.005929537625610312,0.07465904399920342
3069.880838580592,1.0678724109256101,0.955001270494743,0.112871140430867
3103.467316044556,0.582572020335404,0.5014485740088477,0.08112344632655635
3139.6168199336607,0.455998248756471,0.0968582714408511,0.3591399773156199
3145.188728744542,0.3372776807859833,0.0013517147102561735,0.3359259660757271
3166.3048242180753,0.12083009841512313,0.027760411417150237,0.09306968699797288
3184.9978927485026,0.1772108716131815,0.11077513956620703,0.06643573204697448
3194.411606945779,0.18715636891084741,0.04122072245294306,0.14593564645790436
3196.587688025625,0.22192080135694486,0.0002594270803386682,0.2216613742766062
3201.617145393318,0.46499040068395564,0.030125124069000985,0.43486527661495467
3208.9774500731364,0.4976693178286426,0.008506949544303801,0.4891623682843388
3211.5557980359285,0.3663278080066015,0.00574218698463307,0.3605856210219684
3216.8180262303154,0.3550750587397867,0.20181620533630049,0.1532588534034862
3221.785081715311,1.0243702510515558,0.8058762057546233,0.21849404529693248
3227.25634385361,0.017381961756465617,0.008175866323194683,0.009206095433270934
3230.4641968093274,1.0290073032573699,0.8093912959027145,0.21961600735465525
3232.4724110930715,0.6508900676175553,0.5637806602401354,0.08710940737741996
