frequency_cm1,total_intensity,isotropic_intensity,anisotropic_intensity
1.9981814459572977,0.0,0.0,0.0
1.028676489543318,0.0,0.0,0.0
0.6485984615003779,0.0,0.0,0.0
1.8540595407268226e-05,0.0,0.0,0.0
1.6195942853206306e-05,0.0,0.0,0.0
2.810072814480159e-05,0.0,0.0,0.0
27.344688258009107,0.012092142190070466,0.0012628047440248651,0.010829337446045601
31.581646972520087,0.01822263401214889,0.002733827629663611,0.01548880638248528
40.21653969109073,0.008917035427769093,0.001624006508196198,0.007293028919572894
72.56876236545537,0.011639372294720823,0.0022803159287540673,0.009359056365966754
74.08917854984513,0.044930959400317924,0.015839976206758602,0.029090983193559322
88.31008282333272,0.0203812205460092,0.009592703012345436,0.010788517533663767
117.9152012259555,0.002757240998241362,0.0002384924237100819,0.00251874857453128
133.89841260357704,0.003546805434249513,0.001041159134663343,0.0025056462995861704
166.30766470081574,0.03239230112623266,0.009956423992167562,0.0224358771340651
183.9923123249895,0.1720861669088434,0.07585646737581211,0.09622969953303129
192.16350912600743,0.00043612259047628104,4.787117049204386e-06,0.00043133547342707665
238.78044683450761,0.006862421989946258,0.0008723506518232652,0.005990071338122993
252.6414011722919,0.20947814402289205,0.07746731838486896,0.13201082563802308
258.68190064954905,0.012171851135860019,0.002932115001944087,0.009239736133915932
272.5403296246507,0.016491545852796614,0.006247270969379202,0.010244274883417412
321.81792849834403,0.0047206517818714835,9.584431918091371e-05,0.00462480746269057
358.33091454750615,0.023120140626215466,0.002008501162872524,0.021111639463342942
399.7122418077836,0.002493871584950183,0.001612319397234866,0.0008815521877153169
423.13997444722804,0.041422199970357516,0.01628845904453033,0.025133740925827187
429.17398610091504,0.057888958973760736,0.02372935507182615,0.034159603901934586
441.87479831856837,0.0031407271456551904,0.0003418120178594476,0.0027989151277957426
459.46798616251544,0.013734061554987874,0.011445039572439454,0.0022890219825484203
485.96622564693297,0.05312450644411086,0.028487021057448096,0.02463748538666277
503.23353651171067,0.007162870572177854,0.00012184184314859092,0.007041028729029263
525.2762796287316,0.0038815402037298613,0.002452966847320881,0.0014285733564089805
548.0667498120997,0.003308389723062598,0.0008352904592503126,0.0024730992638122857
559.1894968870156,0.0001219658668289744,5.892277927128141e-05,6.3043087557693e-05
596.421579577687,0.016303029984196898,0.008470739295921468,0.00783229068827543
649.8164218720859,0.059311989468721814,7.468204702314021e-06,0.0593045212640195
657.9369960419365,0.010614498804564661,4.779748740640473e-06,0.01060971905582402
739.1353862769404,0.03313816104359649,0.02621016565355843,0.006927995390038059
744.6489572187857,0.03308677014349727,0.005455263231225279,0.027631506912271994
757.7556764905745,0.00856858871642187,0.0033335505869666253,0.005235038129455245
793.1946240637564,0.3337751690991485,0.2480560283817264,0.08571914071742207
827.4321666027462,0.06388283189583549,0.03141638503754817,0.032466446858287326
829.8561681107537,0.0014174627300020403,5.590149670406071e-05,0.0013615612332979797
854.6691860250219,0.003966572728132566,0.002797296817803926,0.0011692759103286397
863.1062956723713,0.007064761796566144,0.002744239759413198,0.004320522037152946
870.1886719511824,0.02301840079152199,0.0013413078861872875,0.021677092905334705
914.0017166061674,0.06836354352044383,0.019283420104707145,0.049080123415736684
965.8475863213267,0.012239795091773004,0.0019524729934518716,0.010287322098321132
975.8433387486389,0.03286782563742727,0.012537617996308778,0.02033020764111849
981.8906536456428,0.012037410669458296,0.005741005979414563,0.006296404690043733
995.5536216196936,0.059566620484320626,0.023424257954307536,0.036142362530013086
1008.9181408176753,0.02049270648268058,0.009793736444706994,0.010698970037973585
1026.7032478872013,0.2703587600196662,0.11445173453790933,0.15590702548175686
1032.5626604682288,0.11060641903681667,0.041416399763470106,0.06919001927334657
1033.5306232100327,0.007316596290198728,0.0024712181989930884,0.004845378091205639
1087.8068924124439,0.0006416954667867357,0.00042449752807482825,0.0002171979387119075
1093.0952480340777,0.06504954943676337,0.03620026184226619,0.028849287594497182
1132.475374539831,0.0362776761716546,0.012244719068607347,0.024032957103047255
1133.0698546935844,0.0022802503022260655,2.791134227816505e-05,0.0022523389599479007
1145.1898400122855,0.6282920859089781,0.3362411977420495,0.2920508881669286
1159.6886360296849,0.13033476964413315,0.07550773078970288,0.05482703885443027
1171.8436923676004,0.002888030349003193,8.693677923433698e-07,0.0028871609812108493
1193.7120311337255,1.447072797181809,0.8127494731534769,0.6343233240283319
1198.6686625546351,1.042530100476732,0.6051711109482331,0.43735898952849894
1207.454565653175,1.5226773039013193,0.550165966255648,0.9725113376456713
1208.643734902413,2.3059013086252875,1.1962830717239903,1.109618236901297
1237.5599550735767,2.102551537822242,0.9648009966166234,1.1377505412056186
1272.080796280468,0.08077858859796261,0.035156666911948534,0.04562192168601407
1276.2408116736497,0.09580999468234626,0.010377062638752517,0.08543293204359374
1286.2513539476404,0.543727360775105,0.24924488068668926,0.29448248008841565
1324.5438399409993,0.3046139601757613,0.21214554862445692,0.0924684115513044
1327.7419916799888,0.05143363008024017,0.020912440830150907,0.030521189250089266
1340.5519849289503,0.7511909740759752,0.36341526770684346,0.38777570636913183
1363.5577776356183,0.022587163638232505,0.007064192709994778,0.015522970928237727
1390.2608294210495,1.1166541549840858,0.5425805396921759,0.5740736152919099
1411.9371851018375,0.03701378240240798,0.02019191901178613,0.01682186339062185
1445.3723038690102,0.05840525382275627,0.01591475335575637,0.0424905004669999
1468.4128409507084,0.015487451540144574,9.119555460071875e-05,0.015396255985543856
1477.1894865874956,0.022304933189511482,0.004681250978320733,0.017623682211190747
1478.9057323235663,0.4437322243679539,0.20397803227941752,0.23975419208853638
1484.6719801830147,0.12578432110533383,0.026718039626590865,0.09906628147874295
1486.199833916624,0.0455299043817375,0.02607995225877559,0.019449952122961904
1492.9189534940324,0.04761165675228089,1.3496883802978026e-05,0.047598159868477916
1494.4493253000885,0.06811910043858677,0.0032590514011907124,0.06486004903739605
1505.3068512058953,0.025790746436891526,0.004921064926269741,0.020869681510621785
1515.019863418663,0.06354099756434484,0.024642141914603417,0.038898855649741416
1533.3932194337494,0.28225210816744273,0.09463399462287572,0.187618113544567
1555.3870921263856,0.8321652741258047,0.3147795949870792,0.5173856791387255
1578.9681034845737,0.00430503337211495,0.0017749781719728797,0.0025300552001420703
1635.9193869014334,1.8595584723194385,0.7390153697481993,1.1205431025712391
1653.568356540476,0.0025701243289218746,0.000847260727390746,0.0017228636015311286
1679.9883355820054,23.183245737303718,8.731536415012505,14.451709322291213
1689.6665503823135,0.2211939826915385,0.11004356353183063,0.11115041915970789
1738.721917324093,15.393418560022226,6.64744358149063,8.745974978531597
3009.377400944587,0.3180342589327833,0.04362882323278631,0.274405435699997
3013.997376093222,1.1820529109553037,1.0911794391288985,0.09087347182640522
3035.1064102293726,0.9311617747655875,0.8908546873468502,0.04030708741873718
3041.912363991197,0.2408616199675258,0.12859588046980985,0.11226573949771596
3095.186205005531,0.2267077348436159,3.316587010587889e-05,0.22667456897351002
3101.7259057421406,0.39056497072290935,0.09536737389631456,0.2951975968265948
3103.4901870957888,0.47001597086507163,0.3561927421498462,0.11382322871522545
3153.3850789898806,0.017295050253152904,3.0273669623779802e-05,0.017264776583529123
3161.7082720288886,1.069235954967662,0.3277260816045718,0.7415098733630902
3162.311240156988,0.8850634955419467,0.30488334608785134,0.5801801494540954
3185.0230060723284,0.2755538436145977,0.0547616348457897,0.22079220876880803
3207.919772295718,0.3932927327488508,0.08988573259247915,0.3034070001563717
3210.091427327174,0.23314409092699812,0.011388700337154261,0.22175539058984386
3213.1516784819332,0.19048655218582264,0.017826845922562236,0.1726597062632604
3223.700644985227,0.6840970397213084,0.5430403802820418,0.1410566594392666
3235.4250983811817,0.7493291962940994,0.5330020325336303,0.2163271637604691
3238.198556226968,0.22766699854419245,0.03399297724906882,0.19367402129512362
3240.533899665266,0.6600542845092129,0.47293434681463986,0.18711993769457302
