frequency_cm1,total_intensity,isotropic_intensity,anisotropic_intensity
4.1600897942119e-05,0.0,0.0,0.0
2.830401452773289e-05,0.0,0.0,0.0
2.3141831407440795e-05,0.0,0.0,0.0
0.9090762778283967,0.0,0.0,0.0
1.0119679626060898,0.0,0.0,0.0
2.272999382547187,0.0,0.0,0.0
12.36530314773863,0.007736989913614791,5.823638256311284e-12,0.007736989907791153
18.054551334505685,0.011576262460729323,5.153199971875941e-05,0.011524730461010563
24.064351352329425,0.010549620291268023,6.598505041905101e-10,0.010549619631417519
40.69066830189121,0.00022118890699164605,5.395713308816714e-07,0.00022064933566076438
45.27010643295332,0.009756113770470608,0.00027339367257122514,0.009482720097899383
69.66164815897619,0.0018505366137010091,5.451662767372941e-07,0.001849991447424272
94.95209668511583,0.003842183643113001,0.0017991472854934085,0.0020430363576195926
99.46941795770097,1.0143625548425108e-05,1.844577634076859e-08,1.012517977208434e-05
122.675309827005,9.64035051921408e-05,7.082880238329845e-06,8.932062495381096e-05
130.16101895895443,0.0028332413596809363,0.0022648901951755323,0.000568351164505404
139.42311990957728,0.004733611724131474,6.391199862872481e-10,0.004733611085011488
155.5557883938917,2.208037940882556e-05,2.0459584340638703e-06,2.003442097476169e-05
158.0020561699502,0.006724292612988797,0.004200774820493829,0.002523517792494967
165.28282629563148,0.00017137707085975836,3.725519980789865e-06,0.0001676515508789685
182.79907249482974,0.008494730137298068,0.00045265412712185664,0.008042076010176211
237.74813458269782,0.00495023820395415,1.1455722529187696e-09,0.004950237058381897
257.90688478192277,0.0014671088383319095,0.0005135250127900981,0.0009535838255418113
282.33465422300384,0.002699312331313961,4.5176228954992524e-07,0.002698860569024411
289.387349915464,0.0032728782792755596,0.0013891893271917985,0.0018836889520837611
354.69861167219807,0.011620044870394974,0.005476325135838448,0.0061437197345565265
375.4277954614863,0.002375822897986443,0.0002825750078863763,0.002093247890100067
422.3404824498109,0.00018194699827724868,1.4849650319930047e-05,0.00016709734795731864
439.046362858576,0.010496587779474209,0.005558894082485637,0.004937693696988571
474.6343662213995,0.00034689331084214193,5.912703430652007e-08,0.0003468341838078354
483.0506557714669,0.00026549846303599764,1.8338019558326715e-05,0.00024716044347767094
542.1344714896682,0.0033205117004223546,4.182815353672964e-08,0.003320469872268818
565.0095991628455,0.017665907602653217,0.013590778007226243,0.004075129595426973
633.5656213650786,0.06194804031336723,0.05407271448247221,0.007875325830895022
686.3692288647973,0.14256239246997066,0.06902230152320943,0.07354009094676123
695.0559379284962,0.0007702512451811368,9.680828891181724e-09,0.0007702415643522456
701.6910136833749,0.0006527571830810927,4.4968610242070225e-07,0.0006523074969786721
731.7784300446402,2.044048137305796e-05,8.136459313410036e-06,1.2304022059647923e-05
733.9467918969333,0.07520687940330864,0.06483457948463979,0.010372299918668847
737.3510759006663,0.00011396064675312604,1.9895883596273907e-06,0.00011197105839349866
743.9096050490907,0.02528904006223443,0.020577814756391397,0.004711225305843035
749.9799459704641,0.0001378810404651585,1.22296400016973e-06,0.00013665807646498878
780.835440526984,0.0013526668506313629,3.145041344337457e-07,0.001352352346496929
817.1867159533531,0.004291148147383215,3.769620694183623e-05,0.0042534519404413785
831.0021552204634,0.0012854761276975312,3.7500879738597696e-09,0.0012854723776095573
839.304560191787,0.0018108147277201944,6.950958478161493e-08,0.0018107452181354128
887.335060483564,0.011305991792128035,1.2445814730066257e-09,0.011305990547546562
925.2449528175516,0.0004363960356784044,1.5128439649154814e-08,0.0004363809072387552
936.3586928590406,0.0006769169168106591,2.0238606439668482e-07,0.0006767145307462625
989.0612622331108,0.014647365313173413,0.012612659316944132,0.00203470599622928
1000.946829497033,3.162025214500594e-05,2.885810305783815e-09,3.161736633470015e-05
1011.5842181104955,0.0031994670493096884,5.80701495055658e-08,0.003199408979160183
1022.4217886106832,0.01594425484051316,0.015301681566474708,0.0006425732740384525
1032.4816660397062,0.03551526145627376,0.028622099141624995,0.006893162314648768
1037.6174897184499,6.61398564335964e-05,2.043343040810076e-07,6.593552212951539e-05
1047.5552433977045,0.10725688352245961,0.09130128944531576,0.01595559407714385
1066.4582361978312,0.010141654158022257,0.00012247358609761524,0.010019180571924642
1074.3651250400685,0.024594249758218376,0.003199579645181836,0.02139467011303654
1081.5412595363432,0.004023360894322673,8.135820506345944e-06,0.004015225073816327
1087.0384549678633,0.010581887671649496,0.0019821419346151854,0.008599745737034311
1090.2609616500495,0.037341365764407906,5.314580698172303e-05,0.037288219957426184
1095.7253179791892,0.010881732325352916,3.664486264988558e-06,0.010878067839087928
1109.4358263008182,0.0016048875589857537,1.1914438226557136e-08,0.001604875644547527
1128.4386211544613,0.20864301236837277,0.12307158884412647,0.08557142352424629
1177.6718025809723,0.02193099785880212,0.005559648163264369,0.01637134969553775
1201.6478281859709,0.03378212073497324,1.4049662012260991e-06,0.033780715768772014
1217.1476185696984,0.004235731610520774,1.5121277300398004e-07,0.00423558039774777
1221.5148249009246,0.011173539561295145,0.006654294916772358,0.004519244644522788
1225.5419783516809,0.32142826254838475,0.2112565184604477,0.11017174408793703
1252.8527630003216,0.00964241614323087,5.648351091434498e-07,0.009641851308121728
1256.4521507066513,0.013707661405472674,0.005144930352285465,0.008562731053187209
1290.8252080991467,0.0019878088583742317,1.915641444739263e-07,0.001987617294229758
1297.4593217336862,0.011090830520667649,0.0033213902875409295,0.00776944023312672
1317.4571510128778,0.007085364249326966,2.3367007206480368e-09,0.007085361912626245
1321.5281186926059,0.0013462593958399039,9.715800904894537e-08,0.001346162237830855
1329.8349050033883,0.08326144211664628,4.102890218642968e-07,0.08326103182762441
1337.4335327492063,0.006128547948216475,8.885439325006438e-06,0.006119662508891469
1339.6723343326357,0.0006715645815566401,6.787057707937439e-07,0.0006708858757858464
1341.0116671798544,0.008770191101300938,0.004514196022547432,0.004255995078753507
1369.185120225039,0.006597651386915136,0.004903696278949107,0.0016939551079660287
1376.7495824307089,0.04637503223298591,6.923152338663853e-07,0.04637433991775205
1380.7397366286887,0.02995030070439736,0.008828764471912246,0.02112153623248511
1407.4317069915764,0.0031661420630468653,3.984252664542578e-06,0.0031621578103823225
1419.4092252377209,0.05456502520024574,0.026877653730866077,0.027687371469379662
1422.459168165803,0.012769979515168627,0.007484925071797174,0.005285054443371453
1436.0911233092918,0.06362243925020808,0.02675610607287631,0.03686633317733177
1473.3643709780567,0.11493800438344229,0.05570663414384569,0.05923137023959659
1479.2247158363516,0.004299207738679688,1.1717128334955394e-05,0.004287490610344733
1482.246271050634,0.0070149709479272356,0.0028406990455033185,0.004174271902423917
1482.912172875204,0.1055425096723362,0.01632486259551475,0.08921764707682144
1487.1133475706856,0.13494974059757975,0.028881061327975115,0.10606867926960463
1492.931588226917,0.001024720118744687,0.00042379660556414445,0.0006009235131805427
1500.9573262190809,0.003544499609911146,0.0008654754849055103,0.0026790241250056355
1506.258839143332,0.0002807405617475491,8.937566681497062e-05,0.00019136489493257848
1514.9735615293716,0.02117255497705568,0.005576722283813013,0.015595832693242665
1515.6164458972605,0.012316737663574944,1.8945731108881394e-07,0.012316548206263855
1682.020689022066,0.06093660106507365,0.00827380668974493,0.05266279437532872
1692.7840708764616,0.1144117969836052,1.7403136956163432e-09,0.1144117952432915
1808.258330661791,0.023597699801756963,4.993900081681231e-08,0.023597649862756146
1868.7765524678293,0.5165250808950457,0.4012137945626686,0.1153112863323771
3028.5589054397333,0.44370912054818634,0.4411514703728318,0.0025576501753545454
3029.684304866504,0.8844552076894294,0.8731713988695188,0.01128380881991064
3033.7243048093374,0.6583078935874017,0.6502058901521012,0.008102003435300516
3041.649664922027,0.006862692120975631,0.003935156699795143,0.002927535421180488
3052.455526834776,0.7097310005696595,6.760416581033187e-05,0.7096633964038492
3054.6144328595533,0.4009068888207525,0.3953821688095458,0.005524720011206668
3059.684346781508,0.004350038998833362,0.00010107253802856564,0.004248966460804796
3064.2735063646405,0.42715297177159495,0.4161574170529664,0.01099555471862858
3072.3655118848696,0.14999816358529366,3.6555613772551286e-06,0.14999450802391642
3087.0519291549986,0.0017905818592540885,4.49565860312301e-07,0.0017901322933937761
3092.4377450622915,0.420422758970014,0.3987900803719626,0.02163267859805141
3099.3883028111836,0.09684455326122336,4.384284351159947e-06,0.0968401689768722
3107.9238656359753,0.1077043330792912,1.9663966195545078e-05,0.10768466911309565
3119.3736793243393,0.4357250839637846,0.3897654026633127,0.04595968130047189
3143.9878349980704,0.1000237050562182,6.9478499189035265e-06,0.1000167572062993
3180.2820285500184,0.1602494355364159,1.3523074194861455e-08,0.16024942201334172
3203.9518761689114,0.2655646781923216,2.2176055587160807e-07,0.26556445643176574
3217.8138898007196,0.5546817924682959,0.11380273380303751,0.4408790586652583
3230.29253828173,0.14880548158543816,9.667127331086753e-05,0.1487088103121273
3234.1526824596745,1.4004397335719636,1.149313188260748,0.25112654531121575
