frequency_cm1,total_intensity,isotropic_intensity,anisotropic_intensity
1.7366758267476536,0.0,0.0,0.0
0.4691943257507896,0.0,0.0,0.0
8.734378473617263e-06,0.0,0.0,0.0
1.9159749644961267e-05,0.0,0.0,0.0
2.7810505521341662e-05,0.0,0.0,0.0
0.8421456711591663,0.0,0.0,0.0
9.794228928419958,0.00024292630770434868,1.463737405832519e-07,0.00024277993396376542
13.661569630076722,0.00030857110066149335,4.08751044422765e-09,0.00030856701315104914
16.655550621296634,0.00014154115182607766,2.5267053953271056e-07,0.00014128848128654495
23.60007185291654,0.0011018158361287857,3.0971084280970737e-10,0.0011018155264179428
37.63250051452368,0.0001941086339478469,2.045517190759332e-08,0.0001940881787759393
45.16133132983516,0.0005016900485952903,8.74618118926105e-06,0.0004929438674060292
45.90717886855669,0.00018562020230479927,3.03860504671162e-06,0.00018258159725808765
70.52068334471899,5.99104042831427e-05,2.7573192220540287e-08,5.988283109092216e-05
78.36849072677096,0.00010807532123791169,1.5341540603478904e-07,0.0001079219058318769
85.57380776488313,2.614740966278069e-05,2.7495005007714054e-06,2.3397909162009284e-05
88.88549979260425,0.00012396768444255805,2.6747548493671e-07,0.00012370020895762133
108.85015292049866,0.00011905761284996028,1.3809362574123044e-06,0.00011767667659254798
117.70701604450488,3.17378732460432e-05,1.1598312234613835e-06,3.0578042022581816e-05
124.89796414483146,0.001748859723651147,0.000911346360348964,0.000837513363302183
125.22981106484892,0.016815351541675867,0.010527710856008251,0.006287640685667615
132.3132356599871,0.0011310250247060678,0.00040430323494561007,0.0007267217897604578
145.46193992329316,3.457260386239875e-05,5.176997048742914e-07,3.405490415752446e-05
150.29672579595672,3.509535436420112e-05,7.090533734222507e-07,3.438630099077887e-05
171.6666617528167,5.235472610000438e-06,2.918338324610158e-10,5.235180776167978e-06
172.9629758852074,2.5435219254207447e-05,8.566252362011353e-07,2.4578594018006314e-05
187.53593352149375,0.0003577184556527767,0.00013829690143955543,0.00021942155421322127
244.24807322171685,5.648398267011463e-05,3.5101396708558846e-10,5.648363165614755e-05
245.84255678761943,2.2598555991343683e-05,5.057911972275292e-09,2.2593498079371406e-05
249.63751325892946,0.0002417037915723352,1.3733000662755551e-05,0.00022797079090957964
254.4928983874832,0.0003216740946567781,2.6682113325188307e-05,0.0002949919813315898
308.48143219666787,0.003741488349417802,0.0027297674428250936,0.0010117209065927083
334.77755272126166,0.0036022854221451155,0.0022285779787771243,0.0013737074433679912
360.1179374162038,0.0058724577688571995,0.003683884906904345,0.002188572861952854
417.40247909523066,0.0006174762125787911,0.00041778309795870703,0.0001996931146200841
433.1977852334228,4.8561423631341105e-05,1.3342950441749494e-05,3.521847318959161e-05
465.4290203451453,0.00021394724784680737,1.4936469857950379e-05,0.000199010777988857
486.65685523378204,0.00115072323671401,0.000697368676157375,0.00045335456055663496
499.1992863028126,0.0003407757918307635,0.0001129936357978142,0.0002277821560329493
521.9930709393388,0.00011464227433082642,6.934740077292059e-05,4.529487355790584e-05
686.2745714863569,0.005413934768828329,0.00039815720305977126,0.005015777565768558
697.9800454063738,0.00027827004676698406,6.432187960111254e-06,0.0002718378588068728
727.9003263682484,9.106535335970552e-05,1.8431245724461825e-05,7.263410763524369e-05
728.7660959099231,8.353942639864324e-05,1.0095385425271279e-05,7.344404097337196e-05
731.6104040234134,2.008612364777549e-05,2.1646056054820175e-06,1.7921518042293473e-05
737.5364714739765,0.0002829238499207321,1.5421912686490695e-07,0.00028276963079386716
747.2196735408515,0.00012067952658433773,2.899546077418463e-07,0.00012038957197659588
765.5096752024107,0.000546457250477733,5.736545943077668e-07,0.0005458835958834252
790.3772537224371,0.00010170494314331638,4.15710078814218e-08,0.00010166337213543495
821.4719691492303,8.847191124150547e-05,7.131950721455328e-08,8.840059173429091e-05
857.7350498250139,0.0003060476421619066,1.2388772759864093e-07,0.00030592375443430793
882.2157233315562,0.005938754329060706,0.005664022949763167,0.00027473137929753935
900.0660396122145,0.00028095222379844603,4.813779049146599e-06,0.00027613844474929945
908.2387112865392,0.034075577972301443,0.02075949985925556,0.01331607811304588
923.0848396862763,0.060978120408096234,0.04183352125561103,0.0191445991524852
931.5685179164352,0.00020910872592230345,7.2661422258962675e-06,0.0002018425836964072
967.1208586539216,0.0006571974282309668,1.179503293188759e-06,0.0006560179249377781
1000.2221448239088,0.008188024194693819,0.004372331184326894,0.0038156930103669245
1011.2262052884886,0.0005655646921719797,0.00016905804564454154,0.0003965066465274382
1012.6589045448028,0.005031234536932196,0.0026851668956769026,0.002346067641255293
1020.0785836348056,0.0006051692352676506,0.0004031780128161771,0.00020199122245147353
1041.2932890915736,0.010072829779301929,0.003733109454694935,0.006339720324606994
1049.7086062171004,0.0016647662555092767,1.0909405519906907e-05,0.00165385684998937
1055.8703490738205,0.0019706732058232157,2.0574739571513073e-06,0.0019686157318660642
1059.8127205464489,0.0005323469006929157,3.1868519993784878e-06,0.0005291600486935372
1072.0382446426709,0.004474166750303678,1.0132415237223424e-05,0.004464034335066454
1073.3057180129847,0.018372056398201067,0.005295128871401605,0.013076927526799464
1085.055177173405,0.017341910096209143,0.0005373047756666597,0.016804605320542485
1088.4531821007956,0.062025988422354746,9.492617808202237e-07,0.062025039160573926
1089.4495767697686,0.06510137675780929,0.0011063682598210823,0.06399500849798821
1090.248103671824,0.0006736034148134473,0.000498164054311312,0.00017543936050213533
1092.1352757463835,0.0013601805838257227,1.5359142473353885e-05,0.0013448214413523689
1094.6726082001599,0.008433058268060107,0.0014146237746328933,0.007018434493427214
1127.4108271909015,0.049951548041163946,0.02881296622955656,0.02113858181160739
1150.4680827377538,0.08823954228485703,0.06259400849476239,0.025645533790094634
1158.2775602671047,0.22220448142642607,0.1289381509998781,0.09326633042654797
1162.7882746801392,0.005820359601743283,2.8770019240412254e-06,0.005817482599819242
1205.7296953343584,0.010480427743235746,6.056765972532319e-06,0.010474370977263213
1221.808412863345,0.00199279992976972,0.0006790249940174644,0.0013137749357522556
1223.9396542236534,0.0011207609463975614,4.056243423166219e-05,0.0010801985121658992
1237.3749692798808,0.0021720140413581867,7.430580496354534e-07,0.0021712709833085512
1249.278004485192,0.0013861746844031362,9.531044127919536e-05,0.0012908642431239408
1254.8079401322782,0.00013111478324061849,2.9662324068154294e-06,0.00012814855083380307
1274.9290874259411,0.0022690293406963206,3.957127195530746e-05,0.002229458068741013
1278.62429309554,0.0018050743899672202,4.6131552531747184e-07,0.0018046130744419028
1289.125314787003,0.003014549547803122,6.632758689072412e-06,0.0030079167891140495
1299.250559371364,0.0016338785790373704,1.7215022913318317e-07,0.0016337064288082371
1306.279413646516,0.0011712274560133733,0.00010613584887615067,0.0010650916071372227
1311.007627369739,0.009427044691930835,5.606373957659338e-07,0.009426484054535068
1319.8900772191646,0.007467931209624251,2.0865808914066077e-07,0.0074677225515351105
1324.9507820702052,0.17219166278354173,8.432816905604246e-07,0.17219081950185117
1327.4872066801202,0.003426831548357355,1.907357518812119e-06,0.003424924190838543
1331.64080717157,0.00704617461363301,1.0040806018844714e-07,0.007046074205572822
1332.3729221827562,0.009657808545166216,1.743249933054017e-06,0.009656065295233163
1332.9104117427012,0.00043746705431787174,6.4442653501941e-05,0.00037302440081593075
1335.4643175842543,0.00023996976077463516,9.415069231083952e-07,0.00023902825385152676
1338.2564977612262,0.001432539393166319,7.435993786399571e-07,0.001431795793787679
1338.4570198914364,0.002907975385207347,2.420328037505622e-07,0.0029077333524035963
1357.7008779527812,0.0016465745570962151,0.00010371481152825564,0.0015428597455679595
1374.3159383249786,0.0008339182415089525,1.9646256013529103e-05,0.0008142719854954234
1386.3435301366421,0.0005324641267099306,0.00018935629695771345,0.0003431078297522171
1402.5596498836167,0.0013629319144407978,0.0004321445936836236,0.0009307873207571743
1411.4140411578046,0.0015346581052859876,0.00013851526388803975,0.0013961428413979478
1413.1680962980959,0.0030305285759612737,0.000977764032550269,0.002052764543411005
1414.1010839457158,0.004874054459426263,0.003690505855888047,0.0011835486035382157
1418.0417324569376,0.0018416304830371584,0.000944290661368022,0.0008973398216691364
1420.478831537343,0.012703903281525422,3.695295119844674e-06,0.012700207986405577
1421.6162330572017,0.0001215000133990267,0.00010360428294065781,1.7895730458368892e-05
1422.5661973988751,0.0014990106523399406,0.0002760728099222618,0.0012229378424176787
1445.5017786977614,0.0034090458732904875,4.0123457501349144e-05,0.0033689224157891383
1456.7880637067167,0.028648981431086684,0.00025452663652903893,0.028394454794557645
1480.2486519626523,0.00013004937648638943,7.923822711988662e-06,0.00012212555377440077
1480.3501726499098,0.004742141315489202,0.00010345545734589678,0.004638685858143305
1482.470480220447,0.0011889514476374537,0.0006706395240967311,0.0005183119235407228
1482.7416771531466,0.0031391784646606813,0.0006941593391163337,0.0024450191255443476
1484.5802242555278,0.0036904461395625685,0.00024802668496298264,0.003442419454599586
1484.913996011448,0.31485615998973493,0.020382557851398888,0.29447360213833607
1485.5008885971754,0.000893313814357545,0.00044069390388030353,0.0004526199104772415
1489.000935235711,0.0253908053017412,0.0013649940862310104,0.02402581121551019
1491.719249474856,0.003391968007569321,0.00020302106484757965,0.003188946942721741
1493.117513653242,0.0014862688707885853,0.00011363542128846881,0.0013726334495001164
1493.7543315578166,0.027052614550360458,1.1092713746084278e-06,0.02705150527898585
1494.0983207563065,0.02621846490002556,2.4807103976212576e-07,0.0262182168289858
1497.5295893011087,0.00412240243169709,0.00022985380843326615,0.0038925486232638242
1501.559481637726,0.0009033165095847577,0.000286192058159429,0.0006171244514253287
1504.713652983695,0.0007839006332970662,1.3717196266134246e-05,0.000770183437030932
1505.04494903369,0.004301318061400088,0.00012282446303167927,0.004178493598368409
1506.37446489677,0.0012954664936128246,7.784713505421799e-05,0.0012176193585586065
1811.5460466662173,0.03501777451733219,0.01169769735410608,0.023320077163226115
3020.535768025529,0.08807641006952145,0.08668113341842472,0.0013952766510967325
3021.7664660779824,0.16852766047852885,0.1604344950055518,0.00809316547297705
3022.1054782190167,0.0023155015402590443,0.0021490546140324734,0.0001664469262265707
3023.4488631403237,0.01636521258970714,0.008979340138171562,0.00738587245153558
3024.9089079980276,0.9607113248326211,0.9510014859221282,0.009709838910492959
3025.109402152522,2.994015886430052,2.9301762243665546,0.06383966206349778
3029.508011171708,0.029645390347491314,0.024761945559692404,0.004883444787798908
3031.2328283309275,0.14456345477275645,0.13607574676792444,0.008487708004831998
3034.069882245874,0.007751004137545924,0.0019128416016203553,0.005838162535925569
3034.3351490601317,0.24498196537726133,0.21158913234633409,0.033392833030927244
3037.5523873684742,1.760746757839058,1.6999687251912226,0.06077803264783545
3038.4474510682676,0.3027720730992243,0.28197220843066634,0.020799864668558
3041.111922087348,0.3484222616760677,0.31678992699182906,0.03163233468423866
3043.169028889763,1.533245190816723,0.00021541337441714786,1.5330297774423058
3044.0616605329797,0.03523533601013827,1.2188739716028967e-06,0.03523411713616667
3046.077904190528,0.24179342647662572,1.7373329323621732e-05,0.2417760531473021
3049.778959243245,0.004151164896859908,7.861953102318997e-06,0.004143302943757589
3049.9531157598653,0.9187392331508916,0.911559790864294,0.00717944228659759
3051.1670722388812,0.7787498272482319,0.7696752506343342,0.00907457661389774
3055.7142600420852,0.06910542461385964,5.568571191424138e-06,0.06909985604266822
3058.5591692351845,0.17666523523328073,0.00018091113440415126,0.17648432409887657
3061.8120453950564,0.4394909924023572,0.0007274699885724854,0.4387635224137847
3062.8395890581173,0.012725787794204212,0.009774725172135708,0.0029510626220685034
3063.498810788221,0.058912094496020424,0.007507998744187653,0.05140409575183277
3063.7587932656397,0.6043218318130428,0.5889795806744742,0.015342251138568588
3067.121320490148,0.2480506845900325,5.945508104282947e-05,0.24799122950898966
3071.6713333367125,0.025134417515896873,6.386015353375148e-07,0.025133778914361537
3078.4856627682566,0.04594818891787528,2.7766511487443963e-07,0.045947911252760404
3084.6110530122633,0.021763270389007168,2.360742872897639e-05,0.02173966296027819
3089.2444993167232,0.0052016773947716494,0.0003122558484206886,0.004889421546350961
3102.995232226706,0.0011837872216302215,4.0613160655182e-07,0.0011833810900236698
3105.649364599309,0.029370613549331466,0.00027232508502967,0.029098288464301795
3112.907614619462,0.12945538582674157,6.841572656389787e-06,0.12944854425408517
3116.801686618753,0.16645542189562562,8.828633660431108e-05,0.1663671355590213
3121.0864695241753,0.40958477451066905,0.06255765927291729,0.34702711523775176
3122.5829895243005,0.40007871257702765,0.04915530302255264,0.35092340955447504
