frequency_cm1,total_intensity,isotropic_intensity,anisotropic_intensity
1.8786414015048774,0.0,0.0,0.0
1.3866612570431063,0.0,0.0,0.0
1.0695147350304417,0.0,0.0,0.0
5.851978360400738e-06,0.0,0.0,0.0
1.3677908064853498e-05,0.0,0.0,0.0
2.8863317518658272e-05,0.0,0.0,0.0
28.217860656038642,0.0018321824408234902,1.2436513591372484e-05,0.0018197459272321177
31.08570725323807,0.0018378409258807539,4.022983184054059e-07,0.0018374386275623485
40.74277793931793,0.0007176540767727147,1.0748808613225021e-05,0.0007069052681594897
45.20935672174809,0.0024948003657886005,4.4662731112631035e-05,0.0024501376346759696
50.68044646642936,0.0008876765739006055,4.834406711982431e-05,0.0008393325067807812
60.29475394832255,0.0016039138656569146,0.00013879919900008998,0.0014651146666568246
63.27944666413631,0.00024996185478898806,5.821548370450195e-05,0.00019174637108448613
70.0312787303911,0.0006686538104705279,0.00018173969665907528,0.00048691411381145263
85.65469538625172,0.0008469111201051495,7.314572799775517e-05,0.0007737653921073942
100.86951025593025,0.00014325415861415024,6.37116367044418e-05,7.954252190970845e-05
107.60268731881948,0.001773563809961451,0.00043595664506879833,0.0013376071648926527
124.03992406223065,0.0003688815529558975,2.9602374825914813e-06,0.000365921315473306
127.30536917898907,0.0022629527459499255,0.00041442856246226334,0.001848524183487662
148.24057202364446,0.0019522381995057125,0.000518075182338468,0.0014341630171672446
163.20137559290092,0.001087150154625103,3.996808637546753e-05,0.0010471820682496353
173.42406164250394,0.0043723680929117804,0.0017631855273628552,0.0026091825655489257
184.8928633462443,0.0016286698730662984,0.00014912298443948527,0.0014795468886268132
193.84356940413394,0.0005758336486750408,0.000320754067914183,0.00025507958076085777
222.92069871439745,0.007088190838759065,0.004485668396130568,0.0026025224426284963
224.77052633191394,0.002000926045547505,0.0003516976029825457,0.0016492284425649595
230.13971080842666,0.002935909216143478,0.00059985315670283,0.002336056059440648
243.6882761742878,0.0048160369353281085,0.0013245633850724858,0.0034914735502556225
251.70545121620924,0.0041180537334133275,0.0023925068351678042,0.0017255468982455232
260.9777100157016,0.014524149617799192,0.012483394002517597,0.002040755615281595
271.05879813204626,0.0020162373381894306,0.00016903079054437332,0.0018472065476450574
278.36099312977905,0.0020815447130167735,0.0011334537266201317,0.0009480909863966421
282.1084590634149,0.006720934878679702,0.005921848989142707,0.0007990858895369949
283.9729909241264,0.009699370553461194,0.0014088546994179118,0.008290515854043282
302.16142309935765,0.0011393004815920902,0.000725422911953086,0.0004138775696390042
310.2196782113474,0.022424882379944007,0.014948843589507098,0.007476038790436911
320.07721742706883,0.005310372277479617,0.00030903335621129875,0.005001338921268319
365.7989879511325,0.002508832390259902,0.0004055551886783247,0.002103277201581577
367.70300295852184,0.006106304126494085,5.52721229749025e-06,0.006100776914196595
410.0700718254487,0.002401809253155049,0.0016610326547365358,0.0007407765984185132
449.7717137747311,0.0034405056503645634,5.0405391242883275e-05,0.00339010025912168
464.9329349900565,0.004714198949016889,2.142098566360061e-09,0.0047141968069183224
468.783562088478,0.0030200187031886446,0.0018293701666892111,0.0011906485364994337
497.9558166504149,0.00674691905537554,0.00047395949679385354,0.006272959558581686
526.7708996529182,0.004559683478494367,0.00023227902024115638,0.0043274044582532105
537.8052629640065,0.0052548801036853806,0.00019620477024663265,0.005058675333438748
611.1551513022908,0.02685946488098692,0.025519893962152308,0.0013395709188346117
708.8215765141788,0.0734649574050853,0.07203276903506892,0.00143218837001638
747.3785491178004,0.001920034072367143,3.4952522541670646e-07,0.0019196845471417263
795.5707816391098,0.021198208150026477,0.013554488936034094,0.007643719213992382
804.3653176827099,0.0035606151782853405,1.1880448206117336e-05,0.003548734730079223
811.8640530516287,0.00397407101163861,0.0014617220375101431,0.002512348974128467
814.910568599146,0.008667953626212423,0.005273300262677706,0.0033946533635347176
821.7973240881149,0.017938478318352904,0.016978577658722425,0.0009599006596304776
825.0792379736038,0.018789760718805913,0.0078682439339959,0.010921516784810011
838.8497652965733,0.006791753700276185,0.002090812212172202,0.004700941488103983
883.1368555202469,0.030222432645620988,0.024956168310299242,0.005266264335321746
909.1693790069172,0.007215046587238618,5.473873946134046e-06,0.007209572713292484
955.5432043873886,0.0016051316357920849,4.904852001518847e-05,0.0015560831157768963
961.0145187313736,0.011261833169965839,2.809359324378356e-06,0.01125902381064146
963.4976333083018,0.019263047855442382,0.002213834938372722,0.01704921291706966
991.8703996879059,0.004868673931495504,5.215359555078491e-05,0.004816520335944719
1065.166693927925,0.046466286459042515,1.226106657393923e-05,0.046454025392468574
1067.1156910804796,0.0037723030784319266,2.4351058309841115e-05,0.0037479520201220856
1077.156030984476,0.002543842286887452,0.00040400162907407313,0.002139840657813379
1084.9487702589233,0.023422389442636114,0.0010469793339833175,0.022375410108652797
1092.4863259593171,0.0210868700091794,0.006583742994226423,0.014503127014952977
1110.6369379399666,0.018374761129298683,0.012591047151069224,0.0057837139782294595
1120.0629957527783,0.006352864329719295,0.002575780369603411,0.003777083960115884
1120.9707513020758,0.011547792103164867,0.0064795587245555526,0.005068233378609315
1122.266251837771,0.005258058974519561,0.00018572028821844163,0.005072338686301119
1125.4361330989773,0.057156104989332594,0.05001129254848709,0.007144812440845509
1131.0040950366592,0.02928627659086739,0.02266071807774854,0.006625558513118851
1165.8220251173589,0.01068575010503204,0.0032311123424366844,0.007454637762595355
1180.355422420663,0.005748880964807506,0.0007060041083550069,0.005042876856452499
1180.8738570541186,0.0008036592707916859,0.0001715665426222472,0.0006320927281694387
1191.7184784365215,0.0008993545723205989,7.824200898812842e-08,0.0008992763303116108
1192.972537857048,0.005056888837449712,0.0020665499362141466,0.0029903389012355653
1195.0652095061503,0.002422612725000531,0.0014999825738727796,0.0009226301511277514
1216.0861349928564,0.028878902940096776,0.01765029327594702,0.011228609664149758
1281.2379897787048,0.03224794655027361,0.02106669107233844,0.011181255477935172
1295.841147555359,0.0328410343431803,0.013824250259575555,0.019016784083604747
1327.0944676389481,0.007956221399312121,0.00023534510830776987,0.007720876291004351
1329.4244881785683,0.014868709007564708,0.0014885034269292111,0.013380205580635497
1330.7297134362518,0.017508688714212246,8.36771409495211e-06,0.017500321000117294
1331.7419900008115,0.01948891535392836,0.004940952317672204,0.014547963036256157
1334.6614957812874,0.012487089017788652,0.0001663027557656062,0.012320786262023046
1389.7849076125642,0.019198009630447876,0.002580697594187832,0.016617312036260046
1394.9319180252874,0.003513186488266755,0.002066901845135148,0.001446284643131607
1397.2631320876606,0.0037051069093649892,0.0001759875632638103,0.003529119346101179
1398.1388158695001,0.005453759417821237,1.252309389881285e-05,0.005441236323922424
1402.1207973101225,0.003979697820188617,6.429163993456778e-06,0.00397326865619516
1425.2174231576093,0.003894648379426838,0.002351802770342714,0.001542845609084124
1425.829849395397,0.004709194121127606,0.004037836801107709,0.0006713573200198967
1429.0837854916103,0.0035080334756456256,0.0025406643579435244,0.0009673691177021011
1436.6976725043414,0.002849112259781559,0.0020685987112230614,0.0007805135485584978
1439.846794709438,0.013124842183062618,0.0006715328260828095,0.01245330935697981
1470.5753099629362,0.01466610937607201,0.00012026680147445103,0.014545842574597559
1478.141902853567,0.03346608987972645,0.0001271237533937602,0.03333896612633269
1478.2921597427403,0.03441074120869603,0.0003214185441956237,0.034089322664500404
1482.0326151350482,0.031224087729446917,3.787364914044089e-05,0.031186214080306477
1484.61161301817,0.033822557634831024,3.1562246900893755e-06,0.033819401410140934
1486.1460466665965,0.020691422736634168,4.1574360328172255e-06,0.02068726530060135
1490.3351486261229,0.02286839341435778,0.0013423873722623705,0.02152600604209541
1492.9474087619528,0.023209289320327314,4.601690959235247e-10,0.023209288860158217
1499.7677425224304,0.0146111972434978,0.0013109864002213748,0.013300210843276424
1500.1237418221983,0.020884173973317217,0.0007004567818786626,0.020183717191438556
1501.882685830938,0.02558038732729153,0.002301315849630723,0.02327907147766081
1502.2431466112466,0.040945609180369574,0.0005371178630604543,0.04040849131730912
1507.9329383023467,0.008599177202630691,4.564395297489188e-05,0.0085535332496558
1515.6892763661194,0.01882131094496548,0.00026349907105135354,0.01855781187391413
1518.4555722064376,0.01873512186103757,0.0022078571815810012,0.01652726467945657
1519.4169474481043,0.0158813774987194,0.0002461486935682418,0.01563522880515116
1523.8848872636393,0.012493333874753718,8.456724772290338e-05,0.012408766627030814
3000.870604522615,0.12115744659817668,0.05804371970322034,0.06311372689495634
3008.900799462911,0.8340610864881175,0.7541476442798947,0.07991344220822288
3061.1294903045978,0.7828867149852369,0.7270020278567879,0.05588468712844894
3064.4444683927586,0.9297145720529403,0.8640930410425429,0.06562153101039742
3066.2593119658095,0.8398112634236601,0.7542856500116687,0.0855256134119914
3068.1666262458857,0.8453171054454093,0.7409458855503571,0.10437121989505213
3071.196598134667,0.10374866779935088,0.04990716829750126,0.05384149950184961
3071.570890690116,0.6478389342348511,0.5744594150783161,0.07337951915653497
3083.2964800674854,0.5594200530946113,0.4908232935736007,0.06859675952101062
3089.191502984772,0.5646761415444219,0.3160579017923001,0.24861823975212183
3094.6794647350107,0.38811202886161983,0.22260987712037142,0.1655021517412484
3098.6077666546316,0.6848263341558842,0.6045529590009318,0.08027337515495246
3105.386863894764,0.6125504009408808,0.48254094577608286,0.13000945516479787
3126.0817340976932,0.32242379938459764,0.04557676577724623,0.2768470336073514
3128.660951299626,0.35289627209656105,0.03574640611411559,0.31714986598244543
3129.3022509333673,0.5127245428684553,0.18837619487825288,0.32434834799020235
3134.1315945297397,0.2527458537345926,0.003012545670804794,0.2497333080637878
3135.626443104606,0.2882001976417944,0.08113527655244827,0.2070649210893461
3135.6944885359803,0.2036764944017291,0.004308526956964582,0.19936796744476454
3136.0232824893124,0.29834149433219626,0.00023897512574413672,0.29810251920645214
3140.320735485182,0.3026907903758026,0.005546457984316403,0.2971443323914862
3142.735775748936,0.22118653327991536,0.012348153311484112,0.20883837996843124
3158.8888895095943,0.06338620702269775,0.017091114062960485,0.04629509295973726
3159.510499935637,0.0420442116989526,0.007680387229272475,0.03436382446968013
3161.2499415058546,0.07431065668657336,0.036928166943396866,0.03738248974317649
3162.652501436137,0.04424627884893378,6.497842235636382e-07,0.04424562906471021
3178.4323919851295,0.12288462983847112,0.0122563007099094,0.11062832912856171
