frequency_cm1,total_intensity,isotropic_intensity,anisotropic_intensity
2.0714660652168715,0.0,0.0,0.0
0.9929110450992047,0.0,0.0,0.0
3.819133318761559e-05,0.0,0.0,0.0
2.325516252009533e-05,0.0,0.0,0.0
1.914970595309135e-05,0.0,0.0,0.0
1.3291278431238,0.0,0.0,0.0
16.138471234303584,1.7565230373370818e-09,3.651509202583701e-11,1.7200079453112449e-09
53.15959265142103,2.108078235067932e-09,1.6207997273302958e-13,2.107916155095199e-09
67.13814181226314,7.111705389535743e-08,2.33557051291979e-13,7.111682033830613e-08
72.75644452449156,0.030237597496053644,2.749749454376076e-07,0.030237322521108206
106.19058820633632,0.027543048123112767,0.0014237596993934452,0.02611928842371932
233.19523256279908,0.02158376546733622,0.010782899021169044,0.010800866446167175
236.88075595049403,0.0007903910446368283,3.3344419037942953e-05,0.0007570466255988853
259.76146754237215,6.773525153701419e-10,2.5592317543589916e-11,6.51760197826552e-10
260.4499128760775,3.80985797976663e-09,1.9224768850816363e-11,3.790633210915813e-09
286.32398432068396,1.0770521552772681e-08,6.831564873754274e-11,1.0702205904035139e-08
288.75218127165925,0.0035470815903563212,1.968392914212739e-07,0.0035468847510649
301.7521913114391,2.4956886739099827e-08,1.1081959024472977e-11,2.4945804780075354e-08
306.17652489793966,1.8079121146456363e-09,4.787158107179937e-10,1.3291963039276425e-09
319.0050245498174,0.01946703486521829,0.003690197431923369,0.015776837433294923
327.18400684575175,0.0031091055760486728,6.2956631308718404e-06,0.003102809912917801
369.40440035591126,0.00396760651607206,0.0006605480981595627,0.003307058417912498
380.687253976085,7.305785050133736e-10,3.2657599423334554e-12,7.273127450710401e-10
397.6960105311443,0.026783310313768086,0.020770503341981036,0.006012806971787048
419.0195219422169,0.0004057849652448575,1.6144432303324575e-09,0.00040578335080162717
419.2929404823082,2.3252309456484812e-10,1.6331734243703625e-11,2.1619136032114449e-10
435.77752699738,1.5458746266687043e-10,3.76145578694281e-13,1.5421131708817614e-10
442.04842333735,1.8601978730399964e-09,1.85088915986593e-10,1.6751089570534033e-09
510.2677373936872,0.013387172292204184,6.7116394638551415e-06,0.013380460652740329
514.7561923155899,0.01444221011148152,0.008964337965284848,0.005477872146196673
529.3158916325847,4.840670108492992e-09,8.412572929554314e-13,4.839828851200036e-09
601.3363081521478,1.1179614632338118e-09,1.615072206530248e-10,9.56454242580787e-10
601.9207334073732,0.03303619674589766,0.028879104075170903,0.004157092670726757
636.1962181211032,1.866213380701518e-09,2.9487329538794143e-11,1.8367260511627236e-09
636.278848594124,0.025125765041086788,6.168114830242856e-08,0.025125703359938484
686.669614100877,0.08817969513867684,0.08279705426182106,0.005382640876855777
721.2573196464166,0.0005409172547129401,0.000523445574365732,1.7471680347208013e-05
722.435692242735,2.6583913911970468e-11,3.645316096563288e-12,2.2938597815407178e-11
755.4295735581368,3.3005887862765346e-10,2.3021220551424723e-15,3.300565765055983e-10
793.294726064384,0.016886430511359955,0.013767571191670448,0.003118859319689509
800.8820699856308,2.0667891255183087e-10,1.1751421754224787e-12,2.055037703764084e-10
832.4484254533254,0.03666050315591473,0.0007630740506941325,0.0358974291052206
872.00073079964,1.0993661266455213e-09,3.951945382606317e-10,7.041715883848896e-10
872.7792109165698,0.00737030725649041,1.6845307909420896e-09,0.007370305571959619
910.5194460701537,8.524648839372842e-10,4.21814066554729e-13,8.520430698707295e-10
942.3117265184176,0.015483333389739753,5.7722035834588295e-05,0.015425611353905164
949.3228024424728,0.011754386289206746,3.717603459794824e-08,0.011754349113172148
953.379476640374,3.9192050899955965e-09,5.475401101859558e-12,3.913729688893737e-09
964.8550884126878,4.300969401172283e-10,2.357483565064367e-11,4.0652210446658465e-10
988.3154306061303,0.023121837002790326,0.000983532277173385,0.022138304725616943
1009.7861052235268,7.051449683842709e-10,8.797852475678144e-12,6.963471159085928e-10
1012.2897298973533,0.0005264967560271791,8.517284369227254e-09,0.0005264882387428099
1013.8467437706431,1.3243706445619358e-09,9.783401917430329e-10,3.4603045281890293e-10
1027.6124095011896,1.1777727349987314e-09,9.562891990195074e-10,2.2148353597922393e-10
1027.9653184904964,0.03281962681202275,0.02796054988800187,0.00485907692402088
1028.617159154918,3.884935859759075e-08,3.2065010663559046e-08,6.784347934031707e-09
1028.7814434956204,0.1841057597116718,0.15574495775877614,0.028360801952895684
1030.976813104054,0.006623447796005116,5.099229622882249e-06,0.006618348566382234
1067.7733240291816,1.0414668239503824e-09,5.3654567074593173e-11,9.878122568757891e-10
1069.1988395399824,0.3974951157067436,0.3470857387184835,0.05040937698826008
1106.0969685620328,2.3854288755737905e-09,1.4460538341095922e-09,9.393750414641986e-10
1119.8389588597424,3.4585826356516526e-09,1.3665389697834448e-14,3.4585689702619546e-09
1120.414037326656,0.008859715208693565,1.7296306629721897e-06,0.008857985578030593
1140.4878865384742,0.1260119519693387,0.09680171233639373,0.029210239632944973
1162.15002585959,6.1240665429003324e-09,4.468925742811601e-09,1.6551408000887316e-09
1175.7146527090763,0.041026719576505305,2.845381580015048e-09,0.04102671673112372
1176.386830343512,2.751437119623821e-09,3.339062296618016e-10,2.4175308899620197e-09
1180.3273520064968,1.2539589113418055e-10,5.3416549559584394e-14,1.2534247458462096e-10
1222.1183291358625,3.741639684252589e-09,2.1715390486762172e-11,3.719924293765826e-09
1222.3096442066087,0.03972185895199205,0.0021956459029640603,0.03752621304902799
1227.504332499397,0.045029475455927455,9.258079458001279e-07,0.045028549647981655
1231.4701544265588,0.11697267062288454,0.043258720624454905,0.07371394999842963
1262.0734563105236,1.0162325120147292e-09,6.2345323340417374e-12,1.0099979796806875e-09
1302.8796788887798,0.11358630038271292,0.11039177548713278,0.0031945248955801402
1309.0384136071054,1.940759732628679e-08,1.8601205806555014e-08,8.063915197317747e-10
1311.5058071550318,0.008749582210426463,5.070871246796172e-07,0.008749075123301784
1360.9485913367512,1.0795361223749256e-09,6.373313600411325e-10,4.4220476233379315e-10
1360.9738737636658,0.005278623729723584,3.5002431432274797e-07,0.005278273705409261
1396.7970627430386,0.005166115412478418,5.879222964116114e-08,0.005166056620248777
1410.514478163629,2.312746602272009e-09,6.244564543898086e-10,1.6882901478822005e-09
1416.3530600773245,7.974876043759973e-11,3.404948516013169e-14,7.97147109524396e-11
1430.5911107170064,0.017528118765065603,0.0017781386809225532,0.01574998008414305
1475.55752491516,0.014924103151316884,3.196254675704711e-09,0.014924099955062208
1486.5020608777988,1.8023262674242328e-09,2.09399132956679e-10,1.592927134467554e-09
1489.5769251510064,0.021381889723544874,4.182639397929959e-10,0.021381889305280934
1491.097417179286,1.0392992924739993e-08,1.0346946066275954e-11,1.0382645978673716e-08
1492.3093329931596,2.3900096803272237e-08,1.1895720982136697e-12,2.3898907231174023e-08
1501.500464566901,5.237228330777721e-09,5.032364518505714e-10,4.73399187892715e-09
1504.2095386576627,0.05219639559299877,5.5860308580718e-08,0.05219633973269019
1505.8704646762778,0.0787356436713497,9.144044328843828e-06,0.07872649962702086
1524.5947073812097,6.012179824466425e-10,1.1872051764853407e-12,6.000307772701572e-10
1526.5584215548554,0.008253324131551006,0.001619383064804455,0.00663394106674655
1548.7840916806592,1.5310168167667582e-10,2.6557921000992428e-11,1.265437606756834e-10
1548.8784592901725,0.015169775540645428,0.007805367123124207,0.007364408417521222
1656.9043104798857,0.07815903032403217,1.2089337307823413e-07,0.07815890943065909
1656.9878857773922,4.234905389664453e-09,5.2470794267245196e-11,4.1824345953972075e-09
1681.520636663841,1.3318411148811742e-07,1.68860429412616e-08,1.1629806854685581e-07
1681.5719573437282,0.31642486362664535,0.04310758632945412,0.27331727729719124
3069.452878038644,0.034703580921855104,4.664825527232578e-05,0.034656932666582776
3072.571801873499,1.7099022816427018e-06,1.5718266495562382e-06,1.380756320864636e-07
3072.6785597226703,3.864935542518969e-07,2.902766781916215e-07,9.62168760602754e-08
3077.3523791818484,2.6676996987605768,2.45739769719833,0.21030200156224688
3134.8383424442663,0.054236541595501266,4.2869591560892613e-07,0.05423611289958566
3137.1923134466274,8.577730195391288e-08,3.3957335056283166e-10,8.543772860335005e-08
3139.382369083807,4.743792923722464e-08,1.6691229528170126e-09,4.5768806284407626e-08
3140.756086973246,0.8445968673137787,0.044179104431481264,0.8004177628822974
3148.930903224927,0.08369119891243043,2.9297947007709838e-05,0.08366190096542273
3154.5192320721085,3.364850725099218e-07,1.6096730071104084e-10,3.363241052092108e-07
3161.317060380449,2.4146920585366424e-05,3.7163560786083965e-07,2.3775284977505585e-05
3162.7518227773808,0.4728574135386933,0.0041914336001256,0.46866597993856773
3189.762145448171,2.228518350557032e-06,3.007182852210779e-07,1.927800065335954e-06
3189.876313031177,0.4305560598406909,0.057940986076503345,0.37261507376418757
3198.886164536222,1.035019877543683,7.558161677041089e-07,1.0350191217275153
3199.0850351372687,2.318537681460536e-06,2.4003894035452833e-09,2.316137292056991e-06
3213.4444207379856,1.5900034190610446e-06,9.025017834793455e-07,6.87501635581699e-07
3213.6162825717843,1.2459051905040868,0.711698495215837,0.5342066952882497
3226.4333361994723,0.020269601034807423,0.000649461748938433,0.01962013928586899
3227.268043417312,2.9684943940297963e-06,2.3717992453983266e-06,5.966951486314695e-07
3229.15186282701,7.909432097039971e-07,5.847759898070527e-07,2.061672198969444e-07
3229.5909346015674,2.1576069896412724,1.7296658102441436,0.4279411793971287
