frequency_cm1,total_intensity,isotropic_intensity,anisotropic_intensity
8.387429273920443e-06,0.0,0.0,0.0
2.2942961528434756e-05,0.0,0.0,0.0
3.0316654833248958e-05,0.0,0.0,0.0
1.1966638045212596,0.0,0.0,0.0
1.4743738320761248,0.0,0.0,0.0
1.60104701229074,0.0,0.0,0.0
24.272495108028448,0.010037975264762546,8.734275628285671e-05,0.00995063250847969
27.60343382562671,0.009792355288796756,0.00023054474224277647,0.00956181054655398
38.570559620332546,0.020195142782457726,0.0003229645959665137,0.019872178186491212
59.72359842477824,0.018413717572267264,0.0010394838325272257,0.01737423373974004
103.25478988938077,0.018997468816925538,0.00025798712918430317,0.018739481687741234
120.22172239947292,0.0028789454273933945,0.00044271577369487866,0.0024362296536985157
140.30691448166246,0.005457640822640399,5.7930016193539415e-06,0.0054518478210210455
148.6473225111528,0.001335861094619812,3.5080691681741494e-05,0.0013007804029380706
176.35292684228165,0.00511064701969428,0.0011523581597102015,0.003958288859984079
186.24984979283818,0.002931555897413344,5.045681764535765e-06,0.002926510215648808
234.247400003028,0.005578520507640215,0.004250132311173075,0.0013283881964671397
253.52977972719202,0.009319500007222946,0.00027124336070594017,0.009048256646517006
262.9385252437962,0.006719899069599102,0.001355603731392687,0.005364295338206415
280.3471491069388,0.0024302749075124875,0.0015399463421676585,0.0008903285653448291
356.73411802453273,0.021536383246403563,0.011156996379976643,0.010379386866426919
374.07628232576315,0.0017740490799562415,4.349641454821754e-05,0.001730552665408024
381.8469855665281,0.00437223278660886,0.00028477219890790716,0.004087460587700952
413.4057291260312,0.004492506245597142,0.0021409974445452053,0.002351508801051936
420.3753632378187,0.0013778265399826996,0.00015539122763390928,0.0012224353123487903
433.40990169075275,0.0010017641824275143,2.6775768039287636e-05,0.0009749884143882266
474.95138505420965,0.0002713908688542004,3.615062267808432e-05,0.00023524024617611606
506.08440493610294,0.012782940920469343,0.005094915509947474,0.007688025410521868
542.6860959993578,0.002612547394738801,0.00011248407830377304,0.0025000633164350278
578.0154981267818,0.029422526434575574,0.024013809165860354,0.0054087172687152215
586.5490823569611,0.01133659780688893,0.0048022958535018645,0.006534301953387065
621.2305517643553,0.04476155955697554,0.038064191838693515,0.0066973677182820286
632.4821678314416,0.027253201587015795,0.002318004948549109,0.024935196638466686
694.6127507482579,0.0006657327530548225,7.618054903300818e-05,0.0005895522040218143
708.4249499921117,0.04913120110519566,0.046830987079143384,0.00230021402605227
710.1461249350717,0.05560097357457682,0.05363758240334006,0.0019633911712367644
721.0401673139681,0.006534672108029956,0.005623180805176643,0.0009114913028533123
738.2238869988105,0.022438089472410855,0.009490368010730919,0.012947721461679936
741.7805338075085,0.0030352182170829585,0.0022552811550747382,0.0007799370620082205
763.9455178136724,0.00521746761173052,0.0027471043436574118,0.002470363268073109
812.2430646019095,0.01636518869447485,0.015470654000304077,0.0008945346941707721
819.7015472310719,0.01593289840984765,0.008998803638372035,0.0069340947714756134
830.6651242472076,0.002558183416940802,0.0009259414674233035,0.0016322419495174987
880.0026156565136,0.00847060190515712,0.003895264302354354,0.0045753376028027665
898.7573896137088,0.019016385708758233,0.0009763478879010784,0.018040037820857155
925.1327875340253,0.00045504378621262997,6.1310187844135196e-06,0.00044891276742821645
928.83090992531,0.02450788365312384,0.019505312350595473,0.005002571302528367
960.0480876741118,0.0042135981518157065,0.00037377766137026075,0.0038398204904454454
990.9426224441579,0.00567995022645075,0.0009627058525793265,0.004717244373871423
1001.0361950516327,0.0001096922651752378,2.6035566743674436e-07,0.00010943190950780105
1018.858657985419,0.015436982362887009,0.010609406123737652,0.004827576239149357
1028.697292639615,0.20214266214291757,0.17550870769015056,0.026633954452766995
1037.0866525660194,0.005438473155846136,0.005174799816900369,0.00026367333894576617
1038.043524336279,7.3380918883433e-05,4.802492053064643e-06,6.857842683036835e-05
1044.4065781722975,0.18467623605251743,0.16093709371498507,0.023739142337532347
1054.2296092431104,0.006417892906077005,0.002896123914967422,0.003521768991109583
1066.7524306659152,0.07606764668646789,0.06642615659324586,0.009641490093222025
1109.6537174524972,0.001828755267349339,6.392947597562523e-06,0.0018223623197517764
1112.2781287006244,0.0023620609458163905,0.0001720593785112531,0.0021900015673051373
1115.6844198939255,0.0037238829428234226,0.0008028261028926822,0.0029210568399307404
1138.207634730414,0.03351865590166471,0.015203192780422191,0.018315463121242517
1175.9993354364635,0.016427562637996503,0.000859288600360688,0.015568274037635816
1177.6782488158235,0.030437256315088854,2.4332029955484982e-05,0.03041292428513337
1185.872788347724,0.007175006489713402,0.0012754818601275252,0.005899524629585877
1206.927596521381,0.03372581303052853,0.0015829366964143705,0.03214287633411416
1207.2648360333615,0.031179017602800778,0.0016749900747180314,0.029504027528082746
1230.8357877256294,0.3349766530696455,0.22980259507441692,0.10517405799522858
1290.0631984685142,0.16110295208056416,0.09698995227598078,0.06411299980458338
1309.9170760783265,0.010949675176771645,0.00807012762896805,0.0028795475478035964
1320.4893679768275,0.0006032533873137517,0.00011355484736097195,0.0004896985399527798
1335.8231441069306,0.018397964722977937,0.0072376415388444425,0.011160323184133493
1359.3668356524572,0.011074631808028045,0.005074443417048953,0.006000188390979093
1367.7312037824836,0.014991918584395265,0.0045247262045853415,0.010467192379809923
1383.7447687869421,0.038689899002112914,0.0011244501927103472,0.03756544880940257
1420.0227865019185,0.0013684815503624465,0.0007696878017082007,0.0005987937486542459
1436.9335775226373,0.16165050730655256,0.08135988042802715,0.0802906268785254
1488.8052283408688,0.02276697333543597,0.00029422314787609633,0.022472750187559874
1491.5727536455881,0.008369202957999256,0.0009056852293299557,0.0074635177286693
1509.254206827758,0.016389417359054265,0.00012724053792479657,0.01626217682112947
1514.6757714575617,0.011497742405869085,0.0007519735204764061,0.010745768885392679
1516.0379013075956,0.013511105174652222,3.280306899989305e-07,0.013510777143962224
1542.6478424029033,0.011271106495775365,0.0047100601659255895,0.006561046329849775
1656.7504477495959,0.03058643783658327,5.135610345206427e-08,0.030586386480479816
1680.2211609489539,0.3758356466189451,0.07904046313047172,0.2967951834884734
1682.0269187134147,0.055502087638167885,0.0005032406450659173,0.054998846993101966
1692.752217964616,0.1251904884130736,0.00044722671521157763,0.12474326169786201
1804.4229504590785,0.17423471936377316,0.08637080253997693,0.08786391682379624
1808.9788183233695,0.03926505042923776,0.0045431352151374645,0.03472191521410029
1870.503430602537,0.5258347845795672,0.39747255676305043,0.12836222781651677
3079.7329028392564,0.23987525227760087,0.18777696232460117,0.052098289952999685
3082.10682295253,0.686506668059391,0.6187336352206356,0.0677730328387554
3150.5379126805346,0.2144878641533406,0.0004717029381981015,0.2140161612151425
3168.532596377594,0.1626865730280039,0.03144190039777083,0.13124467263023307
3195.237960521024,0.1773622449420607,3.6754126026751454e-05,0.17732549081603396
3204.380171286853,0.27508975564794447,0.00029316490518457557,0.2747965907427599
3205.8616515404415,0.5361189237394254,0.0019279613925017416,0.5341909623469236
3214.151608093358,0.2984439479047214,0.08415033450244087,0.21429361340228054
3218.0117969861394,0.6089544403600653,0.12588660142545857,0.4830678389346067
3223.0289012661806,0.9689717466219399,0.7783499165786846,0.19062183004325522
3229.8388875069886,0.20775438615782194,0.045709490490600864,0.16204489566722108
3234.1642605119023,1.2310431487183586,0.9708049881594685,0.26023816055889004
3234.665411614861,0.9113643178437625,0.750277267366831,0.1610870504769315
