frequency_cm1,total_intensity,isotropic_intensity,anisotropic_intensity
2.639345302506015,0.0,0.0,0.0
1.62686740952247,0.0,0.0,0.0
1.45609669156158,0.0,0.0,0.0
2.6676086855374926e-05,0.0,0.0,0.0
2.208666337594161e-05,0.0,0.0,0.0
1.3005513592982515e-05,0.0,0.0,0.0
13.243117054426042,0.003828090481467397,5.749759103472247e-05,0.0037705928904326743
21.779609525680538,0.007018236675483428,0.00017374413338088718,0.006844492542102541
27.52658181544445,0.01031465168389351,3.939210323760687e-05,0.010275259580655904
28.255491290119842,0.0034771270685468973,6.83640001723109e-06,0.003470290668529666
49.02571113141487,0.002279017383613523,9.54920580435536e-05,0.0021835253255699694
69.7946503259078,0.006393170353008572,0.0009068077332470865,0.005486362619761486
98.80470796987957,0.0027597249806954887,1.0407105407517862e-05,0.002749317875287971
112.77016478756654,0.007095078625231411,0.0005755604243466106,0.0065195182008848
131.64836790782334,0.003536915828025967,0.0003324422702300386,0.0032044735577959286
157.17530060625555,0.0015957560805768796,2.3938403548013477e-06,0.0015933622402220782
172.05490253376587,0.0008056578916935706,8.185672431717747e-05,0.0007238011673763932
193.64592056966663,0.007961756703462202,1.9009438094043427e-05,0.007942747265368158
199.54027362251634,0.0012875821960933133,0.0005653009002735398,0.0007222812958197734
228.97474717336826,0.0008630314148067294,0.0005104329104811766,0.00035259850432555286
238.95414626908993,0.0013390842769254593,0.001108902045669239,0.00023018223125622028
256.1055856333353,0.001295704321289524,0.0003274694667859584,0.0009682348545035657
273.837331931119,0.004703180909874066,0.0036823351436193795,0.0010208457662546867
291.4786326429428,0.002122152308154015,0.001278639053513133,0.000843513254640882
292.6476496379457,0.002311310754587773,0.0008498434725790034,0.0014614672820087696
309.8935690360074,0.006844567096512459,0.0015633376456504252,0.005281229450862034
326.846552762722,0.007518352553310041,0.0016028068507651135,0.005915545702544927
341.3770458472037,0.002533377310956912,0.0002286055721095089,0.002304771738847403
377.4993010362967,0.0006478326937590246,6.124839520802407e-05,0.0005865842985510006
382.37439687422005,0.0021231332630744187,0.00022442086599421766,0.001898712397080201
420.436635538682,0.0037390995872331073,0.0031269909023985743,0.000612108684834533
436.63754201996653,0.0065130326375190265,0.003672665807672247,0.0028403668298467794
444.56450284958373,0.009036369246950712,0.0065890442163368135,0.0024473250306138988
463.8499397516426,0.0030191252285470763,0.0014070406179090239,0.0016120846106380527
472.41936240190927,0.03432927124071089,0.017799996915895223,0.016529274324815667
495.274663360522,0.0020355930549286728,7.94921623822661e-06,0.002027643838690446
552.0406592374036,0.01185759355642731,0.00894743295282811,0.0029101606035992
555.7910088723372,0.02694847342293349,0.014663485195808224,0.012284988227125267
615.9600883186259,0.0068152741796117635,0.0003773463956778305,0.006437927783933933
726.5965595136055,0.017358204665848545,0.011247939460722596,0.006110265205125948
737.0073101090684,0.03483823535140588,0.029809438429278134,0.0050287969221277425
741.8407207688545,0.009217860916168875,0.005985485367367628,0.0032323755488012475
770.2085068776347,0.06110230093829908,0.054236065513722856,0.006866235424576227
792.4911609094091,0.012556013001653427,0.0066386231887668665,0.0059173898128865605
822.6958712334638,0.09285314519912946,0.08435391889691307,0.008499226302216382
838.4596994476964,0.0054252732587717605,0.003043200036488506,0.002382073222283254
856.2948513701257,0.007303647709923897,0.0012430898811700913,0.006060557828753806
891.7058987942771,0.024679812072995706,0.007982622567688544,0.016697189505307162
919.5824895666095,0.026363595522801705,0.014710633203391185,0.01165296231941052
926.6779133045599,0.008553275727851134,0.0025688035679441034,0.005984472159907031
929.562876983293,0.0031439952721881064,1.437590404568125e-05,0.003129619368142425
933.5108829246335,0.015051177771080827,0.012768263686430265,0.0022829140846505613
955.7389635471288,0.027135073441502677,0.02172921218566983,0.005405861255832847
970.0847571718072,0.023319882701843576,0.0033013110260083516,0.020018571675835223
975.3319748301085,0.007716813803581898,0.0001687211361390517,0.007548092667442847
987.5000137501787,0.0012543978593722786,8.967271206647241e-05,0.0011647251473058061
998.263395434265,0.009884973838030636,0.004666835264080471,0.005218138573950165
1009.9981145572073,0.016356692671337023,0.01207702384872287,0.004279668822614152
1016.6449172469592,0.007414207943460037,0.003555941940823584,0.003858266002636453
1030.9600063934752,0.0037439583572556083,0.0009620578236399849,0.0027819005336156234
1036.2502238827294,0.022176733064439957,0.008517521340583967,0.01365921172385599
1059.22350284363,0.0025617332698726273,0.00014985798845728617,0.002411875281415341
1065.071859631148,0.0012352030885476688,0.00013615171340785524,0.0010990513751398135
1081.622677201819,0.022181467360864543,3.673916127680771e-05,0.022144728199587734
1092.2010206589084,0.004695444568844965,0.0007274170573250034,0.003968027511519962
1107.5532659463593,0.009221175350784767,0.0006466129780778714,0.008574562372706896
1127.3276621071718,0.0034517606275458568,0.0024520759250960217,0.000999684702449835
1153.03087087041,0.021997548781800654,0.0006647601921365956,0.02133278858966406
1160.009878556489,0.01901646773978001,0.005969229368057453,0.013047238371722558
1187.3826818273799,0.0027418699954091623,3.0685482249931516e-06,0.002738801447184169
1188.1282183274934,0.019918199055840063,0.003494988860223275,0.016423210195616787
1199.1615411395014,0.03258247221443049,0.0033185797460436855,0.0292638924683868
1207.6920948395255,0.015099305358709276,0.0007926001035320052,0.014306705255177271
1220.6556855450765,0.012947742049169009,0.000727048925136215,0.012220693124032794
1246.7183014229754,0.0036742151248640165,0.0014417042651972618,0.0022325108596667545
1262.1225186566148,0.0035485686021873757,0.000315093911793323,0.0032334746903940528
1275.9203834235645,0.03927420257795504,0.025556474057960212,0.013717728519994823
1281.0308325419087,0.1255681975892482,0.09397352356952639,0.03159467401972181
1307.3312898003692,0.004147999750183339,1.747904990771386e-06,0.004146251845192568
1311.491877885659,0.005456666296037138,0.0035704663707322396,0.001886199925304899
1314.538904600684,0.015231752948673714,0.002544353683491745,0.012687399265181969
1322.8060201588967,0.010424062601099755,0.004377269039494372,0.006046793561605384
1340.1692899335078,0.04386742528501751,7.395244067000717e-05,0.0437934728443475
1355.607952813476,0.013766108310196814,0.002090283731836786,0.011675824578360028
1365.4742387921078,0.015319625828918848,0.0017644932638829474,0.013555132565035901
1371.2200458944299,0.0361462375383652,0.005900383126307529,0.03024585441205767
1383.1813713510928,0.01833945433171021,3.892733849351843e-05,0.01830052699321669
1396.6812028032496,0.01574840658342628,4.230102618455175e-07,0.015747983573164433
1401.3175588583588,0.013226520517258216,0.00016503627835189643,0.01306148423890632
1403.923124384675,0.009271921336318217,0.0005060197024828484,0.00876590163383537
1409.7012923957873,0.00622607356317283,0.0023843190026361315,0.003841754560536699
1412.2932663871638,0.02993796880424312,0.011598949836959365,0.018339018967283755
1412.837072017519,0.016313384469588195,0.008619658690179005,0.00769372577940919
1416.51594051797,0.0012759889228184781,3.87739772163786e-05,0.0012372149456020996
1419.831214321136,0.004038493122819219,0.0012763513427271763,0.002762141780092043
1452.895610427959,0.005016392803837686,0.00017583242152614828,0.004840560382311538
1474.8747832636657,0.02412988642439605,0.0010499710453020696,0.02307991537909398
1481.9632798714583,0.047660454347002404,0.00042329634184925017,0.04723715800515316
1482.6191183945043,0.027558715006393092,0.0007172900518197717,0.02684142495457332
1483.7984274094263,0.03142275329548843,8.787777330159302e-06,0.03141396551815827
1486.4984914569036,0.035843450159778245,1.6359682426995386e-05,0.03582709047735125
1487.7736607485535,0.01876414181107693,0.0003959246975502969,0.01836821711352663
1488.369498598036,0.04075033113540366,1.5388238855609563e-05,0.040734942896548054
1490.8794559273529,0.00242842034218549,2.340338126877969e-05,0.0024050169609167106
1495.6866523324277,0.002861590101899004,0.000192136516036028,0.0026694535858629758
1496.659586897351,0.005801209901159772,3.376121268817524e-05,0.005767448688471596
1498.0245740430191,0.015227676059866536,3.568564273091957e-06,0.015224107495593444
1499.6147886559854,0.03850441080976532,0.0005762055618175342,0.03792820524794779
1500.7577827954974,0.02132299670278905,7.066870661145474e-05,0.021252327996177593
1509.7191477769816,0.017101430620355566,3.817937522176173e-05,0.017063251245133804
1512.181993144886,0.007419380804781118,3.585779978542887e-07,0.007419022226783264
1560.2185552914657,0.0037707044995478898,0.0015923826744063758,0.0021783218251415137
1653.6816628170109,0.04375273099898585,0.015214019115995693,0.028538711882990155
1697.051921708311,0.1190885054969574,0.004361044041889595,0.1147274614550678
3024.920644255828,0.1742086751575715,7.384708670217095e-07,0.17420793668670448
3029.076443427478,0.7129194677340357,0.6872482458384243,0.02567122189561144
3033.6920849604016,0.4862764625285721,0.15502489831833927,0.33125156421023283
3040.430127536653,0.6560252614155879,0.45927501727338516,0.19675024414220282
3044.0192661078136,0.14710987780119,0.1283661447365565,0.01874373306463349
3044.7016158692186,0.05724260608319062,0.03675911453267191,0.020483491550518713
3048.4540516950856,0.7342123147886431,0.6962351938758959,0.03797712091274722
3049.6685358907375,0.8158289571871022,0.7857081976505996,0.0301207595365026
3052.933670199494,1.2113676792806352,1.12271213783554,0.08865554144509513
3053.6629838073886,0.8675551386412584,0.7758460190345511,0.09170911960670736
3056.7142110954683,1.1083039487013866,1.0418025491297338,0.06650139957165274
3060.547146937295,0.28251111299267934,0.019387375225466137,0.2631237377672132
3065.875012475479,1.232569656715377,1.1129984274509954,0.11957122926438166
3069.284141376401,0.03552169800835641,0.019528260051705115,0.015993437956651296
3089.5592228805554,0.08217595166609305,0.01617768518989551,0.06599826647619754
3099.6011293291517,0.15240203360486154,0.05363568700753924,0.09876634659732231
3106.312757477378,0.08249887558903632,0.011086951455362063,0.07141192413367425
3108.529051468505,0.34897028373795935,0.05733601038914698,0.29163427334881237
3111.7433959138893,0.538426864601998,0.1410445913453663,0.39738227325663167
3111.842730441206,0.240544904310526,2.1115662370511318e-05,0.2405237886481555
3113.89170688937,0.3251497351224051,0.017720011845150724,0.3074297232772544
3118.5731697978385,0.2617411391619615,0.014023698091208929,0.2477174410707526
3119.6473787076643,0.11409025210367087,0.0019020229991638536,0.11218822910450701
3122.932992382925,0.302502783960698,0.011723443970664953,0.2907793399900331
3123.9528343782363,0.17252808295210456,0.018694814588510158,0.1538332683635944
3136.306964857363,0.2656845566341846,0.005135411954889291,0.2605491446792953
3138.70589795668,0.21537143319872376,0.0007343153687833734,0.21463711782994038
3166.811997399013,0.3169787137569116,0.2081697286939647,0.10880898506294694
3178.4773160862915,0.2945125979392872,0.012816506424295378,0.2816960915149918
3196.3803913450706,0.9147511443191043,0.6362308575044343,0.27852028681466995
