frequency_cm1,total_intensity,isotropic_intensity,anisotropic_intensity
1.293849040898645,0.0,0.0,0.0
0.5751431109563597,0.0,0.0,0.0
1.8644502144645817e-05,0.0,0.0,0.0
1.5671517225680166e-05,0.0,0.0,0.0
2.282375986011511e-05,0.0,0.0,0.0
1.1995531273609932,0.0,0.0,0.0
18.65779435306732,0.0022263373180557836,2.8705871220150097e-05,0.0021976314468356334
27.529454479856845,0.0006569691005127851,2.2188083261473204e-06,0.0006547502921866378
30.478796107058592,0.0017408456787397848,3.971447273337751e-06,0.0017368742314664472
59.24736290354185,0.0018724480901248415,2.720302416316125e-05,0.0018452450659616803
74.22167351452674,0.0005729424679891452,0.00011634967955693349,0.00045659278843221163
87.54573279025016,0.001618908943017229,9.967338917994529e-05,0.0015192355538372838
96.16042512314266,0.008361040938464457,0.00018325827116160622,0.008177782667302852
116.77389926925323,0.0008746914959116787,2.6122229090331505e-05,0.0008485692668213472
121.2052310544637,0.0006376017012834062,6.724175789437012e-05,0.0005703599433890362
133.19942777926713,0.0012712236721826693,4.979501403460518e-05,0.0012214286581480641
146.73669242152476,0.0039265136263374936,0.0011147696129483425,0.0028117440133891515
162.08598738194138,0.004192028413796371,0.000273946277151855,0.003918082136644516
193.1804904981643,0.003609991846319998,0.0015731276101751302,0.0020368642361448678
246.9147291614067,0.00040788756924460133,0.0002481853882988048,0.00015970218094579658
263.68190283097897,0.0030988030670761695,0.001820971086131902,0.0012778319809442675
283.4273043700419,0.0038438209920432648,0.0008295464975747737,0.0030142744944684913
316.73501923213934,0.011795505088305775,0.010912238240288655,0.0008832668480171211
327.7810120031782,0.004183539837812362,0.001672206840857491,0.002511332996954871
340.76472969424793,0.0043577246376218515,0.003125293353966248,0.0012324312836556029
385.5743248893305,0.004136015193436685,0.00044613550015199486,0.00368987969328469
401.83176165950516,0.01031579270720793,0.00603020116804681,0.00428559153916112
453.3280992966235,0.004892668961629189,0.003058852281225884,0.0018338166804033043
470.44794160719533,0.004555097121544272,0.0024544594453948633,0.002100637676149409
524.9586541544745,0.004730727257204209,0.0002021610936369163,0.004528566163567293
551.8322681598205,0.0031808782620461953,5.600352949988229e-05,0.0031248747325463132
722.8377708611729,0.002223015350664308,0.0012608589518833784,0.0009621563987809296
731.7957457066358,0.00045003963133915625,0.00014026609651878214,0.00030977353482037413
734.3947759958836,0.0010871525247135325,0.0006362308334224732,0.0004509216912910593
754.6905971842092,0.0122984353455757,0.0102944913706811,0.0020039439748945993
778.941683607279,0.029396788728721035,0.028540070714529686,0.0008567180141913478
786.9797790554171,0.010282959878676098,0.008699408347654434,0.0015835515310216653
800.5740015603253,0.00447280844091241,0.0026610238705190603,0.0018117845703933496
871.6913650104066,0.012869903646186391,0.004558120975318995,0.008311782670867395
891.4689275519067,0.05306653300546477,0.034664346432892935,0.01840218657257183
897.0336978677018,0.01733810371994052,0.0120141981154791,0.00532390560446142
904.7623872342307,0.003371681741787109,7.961654217846356e-05,0.0032920651996086454
915.4001825969241,0.005976642598065362,9.049449540677599e-06,0.005967593148524684
930.1770673070941,0.01992018599352807,0.0068719515047441565,0.013048234488783911
955.9311591656689,0.007372607076299911,0.0052692174999877115,0.0021033895763121987
969.0008631237587,0.0018459644909341833,0.0002258935549815923,0.001620070935952591
995.7743276704055,0.03376805679338604,0.020474752770176966,0.01329330402320908
1002.9718741273552,0.006666438340892094,0.0031673664440075603,0.003499071896884534
1013.9759839322759,0.0013573489968733636,7.75095343924844e-05,0.0012798394624808792
1041.84037962611,0.020988859843361532,0.011964804737921915,0.009024055105439617
1047.7889325316758,0.03489142569603426,0.02502461887144101,0.009866806824593254
1075.5391989839848,0.02000953577632715,0.0020108917802408475,0.017998643996086302
1078.4040459441576,0.03247560810406884,0.0058614596552732,0.026614148448795644
1101.4631728799827,0.033193257050519245,0.00025917374089366144,0.032934083309625585
1106.1039029912522,0.020388550904834973,0.00038301294102833296,0.02000553796380664
1119.9601767576562,0.030830021780861964,0.003729415843728631,0.027100605937133333
1132.9825875234071,0.01120515385335014,0.0005080540075822411,0.010697099845767898
1141.0137481608824,0.0678343127097764,0.06560387928031139,0.002230433429465007
1144.0522944432544,0.01467015002926923,0.004729917559231901,0.009940232470037329
1202.8673287780712,0.005270892426063678,0.0012264312961581983,0.0040444611299054805
1220.662673943905,0.014988165033627219,0.0006532603763625041,0.014334904657264714
1239.0033332932435,0.0057456550624460125,0.0010358665703921713,0.004709788492053842
1250.3651742750667,0.004561246389427252,0.00041350258631390145,0.004147743803113351
1259.287450466367,0.005657797321733679,0.00015895023332579284,0.005498847088407886
1273.2941608081562,0.01303408056450961,0.00023901364972593264,0.012795066914783677
1288.9387699792856,0.01560962081975836,0.007559173500652239,0.00805044731910612
1302.4854164717135,0.020541629145054894,0.006171254984760687,0.014370374160294207
1305.4916381307316,0.0027652036901476746,7.53863465159036e-05,0.002689817343631771
1324.7769865975554,0.0018388725370770268,0.0014136580234972303,0.0004252145135797965
1327.8316088372796,0.003059136461199682,0.000412612983865089,0.002646523477334593
1334.1916036137434,0.04615948122279573,0.00014259931201579242,0.04601688191077993
1338.2748337442304,0.04154780478554621,0.0004937966110684184,0.041054008174477796
1342.5108175569196,0.00788426803729212,3.0078594871095416e-05,0.007854189442421024
1376.7145943173891,0.002928642808285511,1.550492482081951e-06,0.002927092315803429
1379.4955404780114,0.004166095894233415,0.0004011455283825517,0.0037649503658508626
1379.930363437679,0.0040936766267037385,0.0027429274951954927,0.0013507491315082462
1389.9177619500322,0.012655298398480251,0.002604283125467273,0.010051015273012978
1410.3076382561917,0.0026266104666667458,0.00039517530989134403,0.0022314351567754016
1412.3010152769577,0.0025474230031354607,0.0013578487875705323,0.0011895742155649282
1414.2395992289303,0.006287277687914197,0.0005505363318792779,0.0057367413560349195
1415.6321325917204,0.003627099102316857,0.00027339970995834137,0.003353699392358516
1418.8118657804412,0.006983432945363093,0.0008427533407679085,0.006140679604595184
1443.7711202038113,0.0631482310951168,0.017890530142958577,0.04525770095215823
1473.5236322066535,0.04998102767807451,0.0022483448527477485,0.047732682825326764
1478.7403053067515,0.014564427414596732,2.5063381119577263e-05,0.014539364033477154
1479.18908375822,0.08070537065918168,0.0011481187077213523,0.07955725195146032
1482.7158048417523,0.03503184796264845,0.0021347831226661866,0.03289706483998227
1485.0893825504816,0.006263551650305616,0.0016099989804407668,0.0046535526698648485
1485.8269417898475,0.05403746255724486,1.7891330070596626e-05,0.05401957122717427
1488.9776823489135,0.01906771669759414,0.0006516440651917677,0.018416072632402372
1492.7298566291206,0.022447194341984358,1.7657417289736244e-05,0.022429536924694623
1494.4891710141628,0.021528431609097808,0.0001910059819968517,0.021337425627100955
1496.8269032904955,0.008650901465940627,0.0014065446443981369,0.00724435682154249
1498.0482758003943,0.022447253688103054,0.004232330922336486,0.01821492276576657
1502.217449954102,0.005281674035181047,0.0002675096547908704,0.005014164380390177
1503.793031253843,0.006292280102196103,3.8290174186845566e-07,0.006291897200454234
1504.846834156499,0.0010250117332539735,2.216008031399423e-05,0.0010028516529399793
1743.6620282463732,0.16298767519253357,0.12101692712066309,0.04197074807187048
3023.6947879945687,0.4216702840421485,0.34535087223195443,0.07631941181019408
3026.1201247895738,0.6087163072063874,0.5243644261248307,0.08435188108155664
3028.1196289175837,0.07465214843382574,0.001584600382855895,0.07306754805096985
3032.8882549217233,0.09419845242400843,0.08072815911764851,0.013470293306359925
3033.681935913425,1.3607891603308944,1.1504987178968566,0.2102904424340378
3034.490883223886,0.7709895429674026,0.6534316407005214,0.11755790226688125
3040.155193535236,0.7324925702352736,0.5605351057480351,0.1719574644872385
3043.4844359095796,0.11544817344816627,0.0755462650960111,0.03990190835215517
3043.719612141673,0.24925010715485174,0.1383636623710833,0.11088644478376844
3049.2902038671027,0.7874160938557933,0.752118303768636,0.03529779008715725
3052.861648988864,0.7975190645641669,0.7402682629997243,0.05725080156444262
3053.451695833566,0.29916453494042505,0.054050373139099044,0.24511416180132603
3059.238421604352,0.4083690645287714,0.0880320280232051,0.32033703650556633
3061.510926162189,0.9320417483436094,0.5588564116400841,0.3731853367035253
3064.7444091112525,0.4969113927108769,0.09340141563903218,0.40350997707184477
3069.5894632682534,0.14694795717718018,0.06617596355582814,0.08077199362135203
3071.2552945519683,0.7376650074671407,0.580034327802087,0.15763067966505379
3078.029184640827,0.5604378422035895,0.16851126292982352,0.39192657927376595
3087.869997679487,0.0493988774361394,9.982966106915903e-05,0.04929904777507024
3092.989915899864,0.20702181121896673,0.024594920468380424,0.1824268907505863
3097.9847734230957,0.09113536962797784,0.07679123460132359,0.014344135026654258
3102.036942539064,0.05827900986210271,0.018750248703360416,0.03952876115874229
3112.429053013724,0.12589449631503133,0.001806231525603683,0.12408826478942765
3116.715117729333,0.3081040669963241,0.06024628932382806,0.247857777672496
3120.135056595223,0.39874228215582064,0.06527181504333182,0.3334704671124888
3126.173158566779,0.21445133027993774,0.01984301013418366,0.19460832014575408
3162.7276759295237,0.5403368686450846,0.43228228490188086,0.10805458374320366
3245.5081808914,0.23652921384278464,0.015606588278051252,0.22092262556473338
