frequency_cm1,total_intensity,isotropic_intensity,anisotropic_intensity
2.2867789635320506,0.0,0.0,0.0
1.6577316399529602,0.0,0.0,0.0
2.060472464190761e-05,0.0,0.0,0.0
2.5977823838156794e-05,0.0,0.0,0.0
3.448314843366335e-05,0.0,0.0,0.0
0.36104319750105274,0.0,0.0,0.0
34.44289687988941,0.0009024152408734029,4.239431128247554e-07,0.0009019912977605781
37.08838491718268,0.00034652891260728735,1.2207836841898984e-06,0.00034530812892309747
74.8106744381504,0.004638088644752116,5.749052448435085e-07,0.0046375137395072725
109.7350507857982,0.005978466702501025,6.405342645127449e-07,0.005977826168236513
140.2612568678614,0.010153903960903776,9.649878947644094e-08,0.010153807462114299
142.78862881254926,0.0015599509746976054,0.00010061584208425204,0.0014593351326133534
173.57791405445158,0.001734566869039748,3.9438342052285357e-07,0.0017341724856192251
209.58488728069383,0.0003700209346077263,1.1188783515586873e-05,0.00035883215109213946
217.80567567807714,0.00166710512509544,0.00023215797476821908,0.001434947150327221
218.67976150250058,0.0033947069794100053,0.0008167138607720067,0.0025779931186379985
245.32114246889168,0.001752552223947296,1.6418326954727376e-08,0.0017525358056203412
259.2974946554107,0.010052824498601145,0.006120588258840138,0.003932236239761007
272.20849810717795,0.012621745906514284,0.005467685944086471,0.007154059962427812
275.06077633519675,0.006387416406166118,0.002155253995100644,0.004232162411065474
308.63611647450665,0.01333772327872194,0.012789582498860402,0.0005481407798615393
326.0214679924653,4.253616309692287e-05,1.9462315408268128e-05,2.307384768865474e-05
344.8049509052337,0.00023394969002540601,4.405111956365315e-06,0.0002295445780690407
358.56924227558204,0.0011977315507577739,1.9732244689880882e-08,0.0011977118185130839
361.8272721732157,0.005772144313044788,0.0025622356538807112,0.0032099086591640767
378.9895742034601,0.00046905113836672574,2.7366641302296306e-05,0.00044168449706442946
382.0710908459368,0.0029861844764227643,0.001893319529357244,0.0010928649470655202
412.3095599396833,0.0007069389585181978,5.393757969041705e-10,0.0007069384191424009
424.61914228182644,0.001895894678418503,4.7576193932420754e-07,0.0018954189164791788
442.88568870713345,0.009839830616280576,0.007767545614304041,0.0020722850019765345
466.13185003262834,0.0076998415704322525,0.003038658045509341,0.004661183524922911
500.6202259262745,0.0005160809691450864,2.5677517503610136e-07,0.0005158241939700503
528.9398353133445,0.009873786631942825,0.006210202031965969,0.003663584599976857
564.5580813218737,0.06293615261434855,0.05526945008990193,0.007666702524446626
616.4542694567903,0.0052653074477887075,0.0012580359689135286,0.004007271478875179
665.259186751123,0.0015848152410061864,1.0996237308550694e-07,0.0015847052786331008
701.578638153678,0.09426549353918659,0.08651085321283658,0.007754640326350013
773.9394533598089,0.0017388098856309056,7.392670805553024e-07,0.0017380706185503502
792.8012777014698,0.015824942993215393,0.011023528813240336,0.004801414179975058
844.6094593803257,5.319220060412339e-05,1.2587710579287357e-06,5.193342954619465e-05
851.3973355388227,0.052501345246649206,0.04324544506636553,0.009255900180283674
918.9766201692089,0.0035476884872495708,0.0009323506731220669,0.002615337814127504
939.599642633579,0.006011704478944464,4.362555823296728e-08,0.006011660853386231
946.9039334404376,0.02841430372759056,3.378841829925453e-08,0.02841426993917226
951.4807587291085,0.010056832432923617,6.53767867105013e-07,0.010056178665056512
954.3888155476883,0.011236106855593557,0.0032828807373255706,0.007953226118267986
955.4122809257027,0.013779540670231169,0.000156490910168952,0.013623049760062216
964.0879418010408,9.414399163094547e-06,2.998905091627629e-07,9.114508653931784e-06
966.770833067853,0.07321144942534712,0.021045420765689764,0.05216602865965735
967.1781025171516,0.000222241786937341,2.335573612710566e-06,0.00021990621332463044
983.9972943420169,8.516068977399869e-05,1.075090192930807e-06,8.408559958106789e-05
1043.9006323016408,0.0038798318006269894,0.0005045092362837611,0.0033753225643432284
1048.770890853152,0.010498007707101352,0.0002912048546081016,0.01020680285249325
1051.5773996474165,0.00636674196387767,4.3406671252338795e-08,0.006366698557206418
1056.754728232324,0.011751995712326485,2.3508438089451443e-07,0.011751760627945591
1079.2432256067252,0.0654826989032802,0.04810259087606625,0.01738010802721396
1156.468667432226,0.20065714905751664,0.127042845174453,0.07361430388306364
1172.8853291966254,0.013515082601206482,0.0010269565576509535,0.012488126043555528
1194.8753208255946,0.013362166368400477,0.000913933679462123,0.012448232688938354
1235.8931095276992,0.0255912997144935,0.002734343770193323,0.022856955944300178
1241.1082943277374,0.0170347782731347,0.0018390674509891416,0.015195710822145558
1241.8774392969433,0.030463737989692628,8.948503903659858e-09,0.030463729041188724
1243.478844801273,0.048680364253695096,4.827908937309026e-07,0.04867988146280137
1278.9673850093325,0.04203820396219621,0.012116371525134211,0.029921832437061993
1295.4935742025875,0.014765550322092808,0.005355254088449741,0.009410296233643067
1310.651305053609,0.07951043445499162,0.06236571781434945,0.017144716640642172
1335.4054687169278,0.013569737205515945,0.012586158821692556,0.000983578383823389
1396.5647315392757,0.0019247270321893536,0.00011998251957292725,0.0018047445126164264
1396.7352659939913,0.0006463526206148198,2.395884322708654e-05,0.0006223937773877333
1399.6217258295057,0.0007294763722065638,0.00010950741694387796,0.0006199689552626858
1406.5472683116282,6.237570193390779e-05,1.6763909742298204e-07,6.22080628364848e-05
1426.9094891295326,0.002114383800324243,0.00021825553353795708,0.0018961282667862862
1433.313792301942,0.004948497363731912,0.00037390054872992465,0.004574596815001988
1444.183597886718,0.007979400949506681,0.0010599960869148012,0.00691940486259188
1476.3297145394083,0.00690967253647647,6.733489360672504e-08,0.006909605201582863
1479.146414806656,0.011307549090816008,6.370222898732748e-08,0.011307485388587021
1480.8263734728087,0.029978343630728956,4.877444926890088e-08,0.02997829485627969
1486.0409089584193,0.015773582192684134,6.212393338793279e-09,0.015773575980290794
1487.2094512483418,0.017443214420853656,8.191616435222574e-05,0.017361298256501432
1490.3190021731134,0.014445370958807869,9.03355700284071e-08,0.014445280623237841
1498.2480986706062,0.038701490971826624,0.001254995536924148,0.03744649543490248
1500.8422235574722,0.05142454405009786,0.0001905855296614099,0.05123395852043645
1501.494494044774,0.023269509648745395,4.7976867385918065e-06,0.023264711962006804
1508.9833090942482,0.02275004217446085,9.090351092910698e-07,0.02274913313935156
1516.063526002771,0.030216519779992925,0.020391930083014407,0.009824589696978518
1521.9593229539773,0.01658401110365022,0.010951053261868618,0.005632957841781603
1530.1093100300645,0.022215324911638218,0.0003655656686760543,0.021849759242962164
1633.9473799023312,0.03516157746474083,0.017102976528709166,0.018058600936031663
1679.0972988987983,0.24240706276972787,0.016688863406231897,0.22571819936349596
2756.9714479319564,0.860683494362161,0.6619957181883394,0.1986877761738216
3053.83362291799,0.022498662405245357,0.005126499682418843,0.017372162722826514
3054.458726118359,0.034796706707823345,0.001078598814227084,0.033718107893596264
3056.6876359573125,0.03173906403129533,9.66995351286969e-06,0.03172939407778246
3057.5761558686195,0.1476686921724742,0.09317384020544105,0.05449485196703314
3059.4746871096104,2.5017434561399603,2.370731350803228,0.1310121053367322
3063.6501549484174,2.1045671773044385,1.9992659124674903,0.10530126483694818
3117.2972098166915,0.05891045179760405,1.727439219389244e-05,0.058893177405410155
3118.4425091447456,0.20347143162231687,0.002054078334264872,0.201417353288052
3119.122663207272,0.04504847842968449,0.0057414514905637995,0.03930702693912069
3120.009673477197,0.03764783538931949,7.440319505186894e-05,0.03757343219426762
3125.606162876971,0.9588790922614662,0.022136955544159877,0.9367421367173063
3126.3190732198914,0.08880524227970041,2.4729113072222052e-06,0.08880276936839318
3127.5584895105153,0.6615316530427799,0.03970994293833758,0.6218217101044423
3130.0364303809383,0.16637356094214864,2.873622242357687e-06,0.16637068731990629
3131.6369489768317,0.17178156522310475,4.028004364439109e-06,0.1717775372187403
3134.00931834922,0.2198127642429877,1.9605636514416373e-05,0.2197931586064733
3159.9648693051276,0.040792187938873785,0.00038526604559488854,0.040406921893278894
3162.255170605235,0.2371144871723579,0.03815253300206638,0.1989619541702915
3179.7689127067997,0.3186731451245881,0.14187458495213548,0.17679856017245266
3228.3938544550983,0.35633200743094706,0.2302582434625835,0.1260737639683636
3246.606110272402,0.19644737000232593,0.1201220212222155,0.07632534878011044
