frequency_cm1,total_intensity,isotropic_intensity,anisotropic_intensity
3.9764280097955735e-05,0.0,0.0,0.0
1.2309895203288819e-05,0.0,0.0,0.0
1.4200764081220227e-05,0.0,0.0,0.0
1.5415312997591957,0.0,0.0,0.0
1.8610835283869838,0.0,0.0,0.0
2.805709764628615,0.0,0.0,0.0
5.925283922612041,0.0004590372204630995,7.220584555202124e-06,0.00045181663590789737
20.874095327292988,0.002951738748400288,4.867615760277052e-05,0.0029030625907975178
49.142225704161206,0.0010045696576891703,9.104566028769433e-06,0.000995465091660401
63.61787174355769,0.0006089956912871337,6.718149868024178e-06,0.0006022775414191095
78.35071431140125,0.0007821222416759633,1.9395632618452316e-05,0.000762726609057511
83.99410818684426,0.006950961023951228,0.00025994400418166176,0.006691017019769566
108.93789804882644,0.002139223193632718,0.0003741485089768135,0.0017650746846559046
119.65523163328064,0.002643925808650486,0.00010458576852179807,0.002539340040128688
131.55919204608273,0.0012865445007469306,0.0006741561358856793,0.0006123883648612514
192.46388686312338,0.0002117548006600875,8.770008190968144e-06,0.00020298479246911934
226.74203802809734,0.0003590903682436402,0.00028111958483394893,7.797078340969126e-05
236.5692913949146,0.00390939562019999,0.003232546097276846,0.0006768495229231442
242.68769874242219,0.00036580500113058155,7.634061924744128e-07,0.0003650415949381071
252.21763705137153,0.00300605241638437,0.002604110944973906,0.00040194147141046384
290.1325410248662,0.002280913851569329,5.1669561340385744e-05,0.002229244290228943
349.68016490334674,0.015984821940125647,0.0005531172498253982,0.015431704690300248
382.9259801572079,0.006366404393320358,0.005082398408336931,0.001284005984983427
400.41569773927415,0.008974551492493234,0.005509453487675993,0.003465098004817242
444.2069837095011,0.020447045329387317,0.002921082406309853,0.017525962923077464
516.5735298472918,0.026592447077305962,0.0017335308163711372,0.024858916260934824
545.2727739554146,0.013488223906864842,0.0013473380963203942,0.012140885810544448
726.5182615212863,0.0015392052591561632,1.6948049600932165e-05,0.001522257209555231
734.2024189204596,0.0016559721688321025,4.091682661671976e-06,0.0016518804861704306
752.0154910517181,0.005674608033074718,0.0001864862447052597,0.005488121788369458
787.6630626879181,0.007967613740491656,0.003445036875332955,0.004522576865158702
792.9609792010414,0.0009409129579597165,3.157468049616046e-05,0.000909338277463556
816.0498450093838,0.006757817358840008,0.001128264580996198,0.0056295527778438105
897.760659245628,0.041861749198948583,0.027185522732080962,0.014676226466867622
907.1083486737931,0.06572922716853567,0.04314206867889723,0.022587158489638447
916.4162967090688,0.0508141730701282,0.027674351773827363,0.023139821296300832
935.4716287342766,0.00253326565727102,2.427446153378296e-05,0.002508991195737237
949.4170494582816,0.006021704113091592,0.0013192570065704429,0.004702447106521149
1003.2949631314988,0.024544411697704847,0.010508297447170993,0.014036114250533856
1032.4317581613957,0.007296563990279649,0.00035116252952626623,0.006945401460753383
1051.5440017236272,0.018317344836655453,0.016177596194576174,0.0021397486420792807
1079.2067595012988,0.025422277151584863,0.0007055775012153402,0.024716699650369524
1080.6292568942429,0.03686743369047199,0.008774188145786937,0.028093245544685057
1100.2921202939892,0.029404454350246138,0.0003545835006463043,0.029049870849599833
1131.7123475841518,0.07019561330382375,0.039576855742171124,0.030618757561652624
1132.856391728,0.004114278776937215,0.0020182115068977644,0.002096067270039451
1136.7671875612784,0.03185848777221576,0.018728416967850405,0.013130070804365358
1142.7455615526535,0.013154194706781464,0.002443787656808822,0.010710407049972642
1165.6471620944908,0.001380730901036864,0.0011843560457337058,0.00019637485530315813
1215.9241529309547,0.01552597481368144,0.009248143810960481,0.006277831002720958
1241.8324875672233,0.0016349185330060594,4.4548214127477896e-05,0.0015903703188785815
1251.5144367349442,0.019349649297757336,0.012233416916349027,0.007116232381408311
1277.7279049918798,0.005999997595913469,0.00047397515690994377,0.005526022439003525
1289.3665907825923,0.005054822665148356,0.0008734578211190838,0.004181364844029273
1301.0112516955692,0.01000954715672808,0.0026890950113982463,0.007320452145329835
1315.0117646619597,0.00036570152961886955,8.921836701843605e-07,0.0003648093459486852
1324.7992110523423,0.015832245303804556,0.0020878587225268046,0.01374438658127775
1330.9826534746612,0.012284785061424287,0.00013340685989041053,0.012151378201533877
1331.9781722281498,0.03169211435284215,8.047136780139361e-07,0.03169130963916414
1340.8240709992251,0.06538663721887866,0.0020593956006114897,0.06332724161826717
1364.6040649156719,0.05826685726955276,0.012974104268743283,0.045292753000809476
1377.837177048071,0.004930098482537728,0.002471858594911353,0.0024582398876263744
1399.0314262232516,0.07560479552383828,0.021386870641587286,0.054217924882251
1408.225809950748,0.029787888537483043,0.011213277228039773,0.018574611309443267
1412.8281898735383,0.002512654521559458,0.0018751906151355283,0.0006374639064239295
1412.842674158668,9.159601095545645e-05,5.637810401199616e-06,8.595820055425684e-05
1415.2348176624555,0.004552572179100928,0.00017909902928832624,0.004373473149812602
1477.4568308466708,0.035776486096825905,0.0004534198248729191,0.03532306627195299
1479.1938326101651,0.04577185953075823,0.0018481581783767998,0.043923701352381425
1481.6266189070357,0.04507330303332894,0.00018667962169755233,0.04488662341163139
1485.2556496836064,0.03625533289970109,0.0005776543133979295,0.03567767858630316
1485.7161797612935,0.0673924353785545,0.007405550271766015,0.059986885106788485
1493.4131605240937,0.030848979246800905,0.011142071049659225,0.01970690819714168
1493.5052514759518,0.026478540191556644,0.00033017984619705925,0.026148360345359584
1493.656927110579,0.016137196109371317,0.0031395921803431376,0.01299760392902818
1493.890412327271,0.02521026584232882,7.039023816123253e-07,0.02520956193994721
1494.3672043335787,0.012586294403643785,0.0012945612130012183,0.011291733190642566
1504.616354763746,0.0013710402094056404,6.093297401608573e-05,0.0013101072353895547
1504.8758365972967,0.006546610368538755,0.0008062641876846606,0.005740346180854094
2386.8233155483103,2.6039506046275283,1.4575580913297128,1.1463925132978154
3026.74871561886,0.8351110329171568,0.7256581244417013,0.10945290847545552
3032.6622152095533,0.024573016060352674,0.021674793038472452,0.0028982230218802217
3034.911002972037,0.6406251319138652,0.5666376227638933,0.07398750914997193
3042.2458786189877,0.7107511019009002,0.6479838879698219,0.06276721393107836
3048.125697819974,0.21861394753139474,0.12905733081668094,0.08955661671471381
3049.9319378981904,0.729541270928373,0.36454045617469216,0.3650008147536808
3050.23711349403,0.5790859066417232,0.5645811252381495,0.014504781403573691
3051.224000139992,1.938442783450964,1.8864243296681535,0.052018453782810635
3057.2945064107016,0.9879519306241287,0.7236221118229765,0.26432981880115214
3058.962316593403,0.05674182015413586,0.002468972468303168,0.054272847685832695
3060.4566247111757,0.21005975380754055,0.09017652619975766,0.11988322760778289
3063.2252698577913,0.5970527891709259,4.5676751274796064e-05,0.5970071124196511
3071.413272689282,0.08411324519989727,0.0684376362617686,0.015675608938128662
3079.0025284587155,0.15713410615895723,2.3857124953923987e-05,0.1571102490340033
3085.5563097685667,0.4529944651775182,0.11604083777682822,0.33695362740068996
3091.087770530856,0.29013095963161295,0.08853599889301453,0.2015949607385984
3102.2367024762343,0.05077903768564952,0.00010481074479629191,0.05067422694085323
3109.4285373980215,0.03639089930965529,0.00019205409360333633,0.036198845216051954
3113.603472310738,0.1114521520246854,2.3038079893975803e-05,0.11142911394479144
3115.9956736005142,0.13097457847484553,8.329724643768664e-05,0.13089128122840785
3121.801415262169,0.4188594273293017,0.07276365550982077,0.3460957718194809
3123.2377922349674,0.4252672475964032,0.062484956122775534,0.36278229147362767
