frequency_cm1,total_intensity,isotropic_intensity,anisotropic_intensity
2.4086428559362556,0.0,0.0,0.0
0.7095369231254499,0.0,0.0,0.0
1.8406676805235668e-05,0.0,0.0,0.0
7.605930732558369e-06,0.0,0.0,0.0
7.779521814195015e-07,0.0,0.0,0.0
1.3971684639268789,0.0,0.0,0.0
30.39024774175243,0.010361331848337088,0.0010152396179743289,0.009346092230362759
43.02083843337534,0.020335812194151245,7.5208115000638805e-06,0.02032829138265118
64.51172790928749,0.00655376739134885,0.0003615504976345961,0.006192216893714254
98.23456420746196,0.01607960667076356,0.0018759872799047922,0.014203619390858768
110.43944163813387,0.013965118552302536,1.634473036709583e-06,0.013963484079265827
195.0785038979572,0.01736714978405738,0.00044306851970483057,0.01692408126435255
211.08389688823559,0.01003049961800552,0.002956343040075954,0.007074156577929565
258.277671962379,0.011396150176786178,0.0009964892862141465,0.010399660890572033
330.1760108661056,0.0015835068462051252,6.246185924747791e-06,0.0015772606602803775
347.1983866453451,0.0017750674028972607,0.0007175923876508887,0.001057475015246372
365.6999085122941,0.000881441755980557,9.665094961442962e-07,0.0008804752464844127
375.4419706417382,0.006354558958682036,0.001606784886720565,0.004747774071961471
418.3686629708262,0.00024552636038400425,9.071133846183605e-05,0.00015481502192216817
454.902568623696,0.0037071928765075642,1.968293663841876e-05,0.0036875099398691455
471.0681665507948,0.016131329981800873,0.011822608332265954,0.0043087216495349195
486.79167680925156,0.04016384067712608,0.02418130752576666,0.015982533151359418
517.2678284594631,0.003991742761864454,0.0006679811918207432,0.0033237615700437103
570.746862371342,0.002000506439418623,0.0005843063776832833,0.0014162000617353398
596.193066420887,0.015762802197469047,0.008476860316802915,0.007285941880666133
608.728878356783,0.0077145802416776705,0.0005759976838535612,0.007138582557824109
635.87451716752,0.013962058734520935,1.0825444149903134e-06,0.013960976190105945
666.4995764523215,0.014973676259290003,0.010330382038939953,0.00464329422035005
721.983237455438,0.0014037673043648406,0.001192067182932023,0.00021170012143281757
739.2041217057811,0.0879180860838188,0.0792768987175037,0.008641187366315113
755.4417563633224,0.0015600503980055325,0.0008068427724577149,0.0007532076255478177
777.3229873906924,0.005411974050644051,0.00010469446281981578,0.005307279587824235
780.4429851099601,0.0013454737687651503,1.3909500656423922e-05,0.0013315642681087263
791.3063755471154,0.014724721551166772,0.01053282853900704,0.004191893012159732
821.4230900571656,0.005380722388418196,0.001007625033134751,0.004373097355283445
854.9310457419125,0.05587723353240506,0.04979697318354909,0.006080260348855978
874.0412900444101,0.0043946243785594405,0.0005548776191862719,0.0038397467593731687
888.9142702318526,0.014464107741148693,0.008150216770166774,0.006313890970981919
910.3596820537284,0.0033794349953866626,0.0025486953311932158,0.0008307396641934468
936.8125610476008,0.005472294418910931,0.000532434739679765,0.004939859679231166
969.7635942368456,0.0015418195504359267,0.0010230930094624517,0.0005187265409734748
972.4158437731296,0.013646105254739006,0.010321611534048205,0.003324493720690802
992.7592341802208,0.008682119677558584,0.004244787791064279,0.004437331886494306
1008.0501439207369,0.001154985001487425,0.0005534359810871031,0.000601549020400322
1012.8354319508525,0.020326506171432432,0.00587989484241433,0.014446611329018103
1023.0799159718393,0.0031892668320340715,0.002483379404360114,0.0007058874276739573
1026.931642926233,0.0025016597178572184,0.0020529895507307373,0.0004486701671264809
1028.0707239288763,0.13695834644027916,0.12327594279961998,0.013682403640659169
1032.9769469404876,0.015059610930366991,2.23364650498157e-05,0.015037274465317175
1064.6827164217973,0.10499560142233837,0.09532792697036159,0.00966767445197678
1078.4224536150411,0.16530940157004742,0.14624773083241696,0.019061670737630466
1099.5497310877324,0.004502065476467624,0.0017651368722593392,0.0027369286042082846
1121.9925780573767,0.00803534620626847,0.0013660862459384463,0.006669259960330023
1144.5294852276897,0.008824434536729962,0.00011995098766173106,0.00870448354906823
1167.791416885682,0.006601407895626107,9.85927665209657e-05,0.006502815129105142
1173.1059022809081,0.024323251428022434,0.0012166403915474314,0.023106611036475003
1178.8429061366387,0.01432703627507724,0.000427486242792073,0.013899550032285168
1190.5161630914458,0.016131200098111566,0.004568191946168459,0.011563008151943107
1206.4022894599138,0.019084758834314677,0.001611358779806103,0.017473400054508575
1216.0500049323068,0.0182491296565184,0.009208209558421799,0.009040920098096603
1224.5000509210572,0.01935957581879131,0.009812174123310875,0.009547401695480436
1227.271541922105,0.019005600577133505,0.009086239782498397,0.009919360794635106
1245.9689621162295,0.12292519725096668,0.10784956898127337,0.015075628269693298
1268.302173075268,0.08154462304261532,0.0654534172324487,0.016091205810166626
1301.2293490078682,0.010531865006721316,0.0075879669684323385,0.0029438980382889765
1317.7766468007203,0.014059206928973049,0.004175390914915346,0.009883816014057703
1320.0076611951808,0.012082113571352712,0.0004876340094605652,0.011594479561892147
1328.8264875184905,0.017069751447121306,0.004567825771784812,0.012501925675336496
1351.6502568716226,0.0705527911266269,0.031831282748102735,0.03872150837852416
1369.646940956456,0.015313373887955683,0.009910790605479908,0.0054025832824757735
1376.9066028530779,0.014566755433331306,0.007855460934745371,0.006711294498585934
1377.7607725907928,0.04452960637761902,0.014586683640561766,0.029942922737057256
1405.353665773892,0.022729072353877916,0.0014493613790169935,0.02127971097486092
1473.0816212901548,0.04822771699119862,0.0011941247384528709,0.04703359225274575
1485.3667232675327,0.025533829482371744,1.6297486544006727e-05,0.025517531995827736
1493.6535505005986,0.02640843198610113,0.001625984714869831,0.0247824472712313
1494.7510452936801,0.005024204649302469,0.0025328366793390873,0.002491367969963382
1499.2212715936773,0.004047681718482944,0.0032692525680464092,0.0007784291504365352
1502.2209151394156,0.009035070976350775,0.002181020747581582,0.006854050228769194
1543.7091837695552,0.00824652834932723,6.845519780160107e-07,0.008245843797349214
1546.1391434867714,0.003725251754509355,0.0009072832878571131,0.0028179684666522417
1658.0958336564897,0.05145199582164451,0.008424648600181365,0.04302734722146315
1661.9063841991954,0.035287311106392494,0.00026049753776678797,0.035026813568625706
1683.7653713216241,0.139938324739303,0.02369754415759756,0.11624078058170544
1684.9741274924907,0.09191387420028163,2.0115176069878237e-05,0.09189375902421175
3031.674282925216,0.8634510520056278,0.6478571853451944,0.21559386666043331
3068.363469139406,0.34177613895454695,0.18774327563067214,0.15403286332387484
3073.069120043353,0.14219938027023393,0.07471749419880622,0.06748188607142772
3077.7371720878036,0.41110915834013806,0.2036256290740752,0.2074835292660629
3086.0999347617567,1.151131439176072,0.9355083185983653,0.21562312057770683
3115.879398325324,0.27419205007763037,0.0122791831302118,0.26191286694741855
3126.1517825692295,0.2745304892604132,0.04202144675366059,0.23250904250675258
3179.2543170975073,0.3000725794203178,0.1066119307704445,0.19346064864987328
3183.2739173123805,0.17651313497161342,0.05082501462241329,0.12568812034920013
3189.9543958632867,0.24805521230723654,0.001532129193173412,0.24652308311406312
3193.7211915246935,0.3555047436649435,0.07352298550140851,0.281981758163535
3199.75100863758,0.5571253858611753,0.16758529035999936,0.38954009550117596
3204.1399988884664,0.2463342229300991,0.01927855970735874,0.22705566322274034
3208.061040253574,0.18186417734836532,0.004853111238500056,0.17701106610986528
3218.4463090501104,0.853705809437283,0.6491486705752982,0.2045571388619848
3220.046756721284,1.6414095363644599,1.3404490104076738,0.30096052595678613
3553.679717241936,0.4752868797856795,0.26422702051887637,0.21105985926680315
