frequency_cm1,total_intensity,isotropic_intensity,anisotropic_intensity
1.3097581189642875,0.0,0.0,0.0
0.44057198372773076,0.0,0.0,0.0
2.2924062875908974e-05,0.0,0.0,0.0
1.9190784372153035e-05,0.0,0.0,0.0
1.7415687289077194e-05,0.0,0.0,0.0
0.4532977218565256,0.0,0.0,0.0
5.851709606107276,0.0009817864560739374,1.1876609817017957e-05,0.0009699098462569195
7.749080525377567,0.0006272482924334446,5.553747364470115e-06,0.0006216945450689744
16.38552000790276,0.0019224576530428314,3.151636949152742e-07,0.001922142489347916
23.929498923381963,0.0017752430848117762,5.3814244935689065e-09,0.0017752377033872827
27.129068391745253,0.0006940799732563446,1.3543265028395403e-05,0.0006805367082279492
40.24374302460599,0.0009295225750641807,2.4355076969648846e-06,0.0009270870673672159
52.79361072637751,0.0002562518656392495,3.2817116242393026e-06,0.0002529701540150102
57.888034819870846,0.0008041412776739835,2.5511707968680896e-05,0.0007786295697053025
67.57612267530429,0.0006491027900405523,0.00013778273464704722,0.0005113200553935051
89.7004559619679,0.0003976302726646065,0.00015521860293036274,0.00024241166973424375
99.05492491341361,0.00019999822334879324,8.068614926399558e-05,0.00011931207408479765
100.52000568565673,0.0005197326731650269,0.00012891229927214116,0.00039082037389288584
111.83454358133207,0.0006235534803465718,0.00024792206765633136,0.00037563141269024046
122.59918343970955,0.001263373412302317,7.840921840425628e-06,0.0012555324904618913
132.70479210077013,0.0006163117637746164,7.8819875680197e-05,0.0005374918880944194
137.49365055143048,0.0011458636088700956,0.0004980684240407472,0.0006477951848293484
141.59889788912776,0.0003774055751421537,0.00021660020109718012,0.0001608053740449736
159.82659656664538,0.0003964424903500344,0.00012442760770833622,0.0002720148826416982
162.58480219859052,0.0037341471121468905,0.002939377742879528,0.0007947693692673625
187.2412975696882,0.0005901725552015834,0.00012335133059257166,0.0004668212246090117
204.56479478302435,0.0014958879463562492,0.001170706304788334,0.0003251816415679153
213.89709388690528,0.0034184512346004717,0.0027578236252377864,0.0006606276093626854
231.0435742610227,0.009865926400674378,0.008535487790988675,0.001330438609685702
236.71103519851604,0.002023332309397005,0.0014193248462133832,0.0006040074631836219
243.51279664366703,0.00654409015518504,0.003838333987979501,0.002705756167205539
260.51906489033274,0.0013009337874633354,0.0010051231594689727,0.0002958106279943627
267.43850162217717,0.0007558047832297173,0.0003823380243012938,0.0003734667589284235
295.00488890165093,0.0036939632536220363,0.0011843365731192836,0.0025096266805027527
304.31310638964686,0.001344642103803197,0.0003382314481325967,0.0010064106556706004
357.2270756083886,0.0025857639232504228,0.001928814614946185,0.0006569493083042377
374.523049651127,0.0007076631573189941,0.00011730941836105925,0.0005903537389579348
397.3425969075483,0.005004209152486727,0.0017930310056210304,0.0032111781468656965
410.9507605867082,0.002200404234467215,0.001368825437237357,0.0008315787972298583
417.8389166416822,0.0012671003418351192,0.0002898601811368927,0.0009772401606982265
442.59399497187223,0.001951987869082046,0.00045373182341182773,0.0014982560456702182
466.2127942583467,0.003066010992376693,0.0003231070096385442,0.0027429039827381488
470.9479317402732,0.0039956579038473465,0.0015715710703095949,0.0024240868335377516
481.7865648605929,0.007404241726351777,0.0017413099812241416,0.005662931745127635
525.3592059679613,0.0003666576153128924,1.8665600756716408e-06,0.0003647910552372207
533.7127065566199,0.00606960881575815,0.002257813560819358,0.003811795254938792
590.0812934936049,0.002694091793947622,0.0013952707044836102,0.0012988210894640119
719.9949096787686,0.002805980335921528,0.0005213886849825045,0.0022845916509390235
731.6294632566877,0.0009619700109195542,0.0005621913731362454,0.0003997786377833089
737.4374014519409,0.002508859157559592,0.002176436749656958,0.0003324224079026342
748.4760702364607,0.001985493495112976,0.0001666938655855626,0.0018187996295274131
758.141143267204,0.012844974374955765,0.011182985540720697,0.0016619888342350676
759.2056169755675,0.0030910936765198046,0.00014237679168495194,0.0029487168848348526
768.8718984878526,0.0035022875108659214,0.0015455196766517353,0.0019567678342141863
793.0208728591161,0.04996645051667053,0.04131500876025639,0.008651441756414137
798.6127625833474,0.0011304751588940675,5.183210014346519e-06,0.001125291948879721
808.5842797242871,0.015139508438323854,0.010944839601159424,0.00419466883716443
817.0537550263332,0.02658467473253074,0.02033026539068809,0.0062544093418426495
854.0692363302247,0.010870918523753999,0.002170331948620495,0.008700586575133505
864.4164678766887,0.08138262321080515,0.07338756161910076,0.007995061591704393
866.514354276944,0.006747878983732079,0.00161855438516781,0.005129324598564269
882.2120873937952,0.0027403458792551448,2.3914207493116664e-05,0.002716431671762028
897.4646443134368,0.0032279933762543065,0.0002633083352354023,0.0029646850410189043
900.8080475170084,0.06993010529231765,0.0615769577335058,0.008353147558811847
912.2031990099979,0.016773161342938263,0.010065340337546644,0.006707821005391617
923.009395522887,0.008855977384415898,0.001438367521370508,0.007417609863045389
931.3368357055854,0.01426412818090923,0.010540196106032913,0.0037239320748763153
942.7837974175013,0.01885159132384017,0.0005508398062326458,0.018300751517607527
957.6861396450703,0.009225518595229468,0.006000690599762829,0.00322482799546664
965.8504998493619,0.003320728303456178,0.0017827515753773657,0.001537976728078812
974.6817976270879,0.007911526802977678,0.0026418581914643626,0.005269668611513316
1009.4178571657774,0.017713984179342796,0.014014967585276048,0.0036990165940667496
1017.0154260859066,0.019323949776330732,0.0008329287818479998,0.018491020994482733
1022.4775317357263,0.023904285235138684,0.016666244816003945,0.007238040419134737
1041.2711620813805,0.007741964042191584,3.5070224913220525e-06,0.007738457019700262
1045.5506836809675,0.022591620017288726,0.005776706268343073,0.016814913748945653
1056.2537583760525,0.035000037032489925,0.018602233535279785,0.01639780349721014
1060.1343619855174,0.020151237397405555,0.002353861914401988,0.01779737548300357
1064.343954201945,0.030237598030568982,0.01664423522443844,0.013593362806130544
1068.64637405465,0.02904541743642859,0.01055426595018387,0.018491151486244722
1071.5463104359164,0.003964187939020051,7.754359668808712e-05,0.003886644342331964
1081.0038106441418,0.02084297193593563,0.002712401062082575,0.018130570873853055
1085.739089593681,0.029834055862335142,0.00025908664690150475,0.02957496921543364
1095.527533763755,0.05453683031492759,0.006264555329069211,0.04827227498585838
1104.1586571807827,0.012374943620300035,1.3964130155402856e-07,0.012374803978998481
1106.9521123145305,0.03316352251693404,0.00042493252723111,0.03273858998970293
1117.6112699052176,0.006651387924019477,0.0007213793381035805,0.005930008585915897
1120.148404332471,0.01680044758038309,4.414797928287861e-05,0.01675629960110021
1120.768948620442,0.012971380127571252,0.00019079244244392572,0.012780587685127326
1128.4609021178474,0.023337898837426204,0.002024882298720224,0.02131301653870598
1133.959048232991,0.010723597536350108,0.007023214448219069,0.0037003830881310387
1138.3481613022172,0.010500939824989959,0.003170578486686515,0.007330361338303444
1151.923533587521,0.020823471379716987,0.0016293861051869323,0.019194085274530055
1167.523348834895,0.02008853437296516,0.0006379804483230547,0.019450553924642105
1172.7522352369353,0.013855748953129337,0.00653100061882822,0.007324748334301116
1179.1270080371867,0.018814814672738513,0.0014368734381306383,0.017377941234607876
1201.6004966377086,0.019124627495818856,0.014246057540143135,0.004878569955675724
1215.1181341147528,0.004792516795309489,0.0005197771183962859,0.004272739676913204
1236.0036696882107,0.01400735488161695,0.0048447592037449425,0.009162595677872008
1244.6859650398717,0.012188336841080945,0.0005318022556163602,0.011656534585464584
1252.5336336870032,0.00741041361995042,0.004840470705064269,0.002569942914886152
1254.2444501291036,0.007778884469366628,0.00523456381110646,0.002544320658260168
1264.8907724283983,0.005160400648499524,0.0005207339487623094,0.004639666699737214
1270.5290955973746,0.006183649738261036,0.00019370902388177983,0.005989940714379256
1277.3825658220612,0.005866881895302349,1.4754450460176388e-06,0.0058654064502563314
1286.7078756579192,0.003181115462958701,0.0014057898924455393,0.0017753255705131618
1289.368535654782,0.03182684252540166,0.0016183877910414893,0.03020845473436017
1302.6136815559178,0.0026010845365177357,9.675071311669995e-05,0.002504333823401036
1305.8500018612165,0.020601810713660313,4.0157166353019e-05,0.020561653547307292
1310.8896736826446,0.02122324714781791,0.0015444437869887612,0.01967880336082915
1313.6074444802591,0.01665554804251983,0.0031421141574320935,0.013513433885087738
1320.7682312720613,0.011123021109687957,0.003511563253692871,0.007611457855995086
1322.7563159225413,0.010973296792486225,0.0003201016957329141,0.010653195096753311
1326.3737334530972,0.006971439329690566,0.00011920383393475804,0.006852235495755808
1330.8977945147467,0.014316339728954726,6.22216319981246e-05,0.0142541180969566
1333.5635006724149,0.05121034498380032,0.0014165164105626171,0.0497938285732377
1334.9166632959143,0.06319090177444533,3.647801354874943e-05,0.06315442376089658
1336.159710701106,0.003888473776512631,0.0005298433806902545,0.0033586303958223766
1340.9686126274162,0.026870535622343924,0.0009038908051489261,0.025966644817194996
1343.518216404029,0.027246175708033463,5.084516937204144e-05,0.02719533053866142
1351.4379627613355,0.01894443534893752,0.00015441357653700518,0.018790021772400516
1360.1210944821526,0.004668676565771965,0.0002873568198866147,0.00438131974588535
1365.3930976295533,0.005197796837364704,6.042509713669213e-05,0.005137371740228012
1367.8431462231217,0.012007756800011841,0.0010935686805398858,0.010914188119471955
1376.7483560635478,0.002642833608590945,4.523955921924615e-05,0.0025975940493716985
1381.934973145646,0.0024990456432565475,5.4757028658058366e-05,0.002444288614598489
1383.7293400486458,0.006132236701792969,0.0003488915408873255,0.0057833451609056435
1385.4350722458285,0.008182130386777451,3.083819884029048e-05,0.008151292187937162
1388.3623372963439,0.009232663535628944,8.097826868241036e-06,0.009224565708760703
1392.625273802051,0.0027764034408197615,5.621138006280304e-05,0.0027201920607569587
1394.0199433583869,0.005418399717243446,0.0008549324615472159,0.00456346725569623
1397.718564146185,0.009806825614779871,0.0019508319776727775,0.007855993637107093
1411.1104703505944,0.004314365063487584,0.00013786224572801247,0.004176502817759571
1412.718819201986,0.0025620712429584597,0.0001623576089511327,0.002399713634007327
1414.148995135808,0.0033693733246169697,0.00018359490284979222,0.0031857784217671774
1417.268953662392,0.005667172696753265,0.001037030809245748,0.004630141887507517
1419.6743418324388,0.010884760362111482,0.0012500252980746555,0.009634735064036826
1420.1999026060882,0.010588530945738904,6.885266395079927e-05,0.010519678281788104
1477.4716488955462,0.028899198493727397,2.970046808352666e-05,0.02886949802564387
1478.083089322219,0.03862738073419659,0.00047048627719692795,0.03815689445699966
1479.055143451354,0.0162064349181424,0.0035478224547576716,0.012658612463384731
1480.3972857008841,0.0072841450491115045,0.0007341886537991064,0.006549956395312398
1481.4424514238663,0.058712363706366864,0.0007550034145359376,0.05795736029183093
1481.7602019415738,0.10213168797061146,0.00038577374692759503,0.10174591422368387
1483.522625296352,0.01375990771180742,0.0019035631595814735,0.011856344552225947
1484.1251388259723,0.02267941617790473,0.0006760017310633612,0.02200341444684137
1484.6667021072315,0.047968392786986835,0.0008616152156154809,0.047106777571371355
1486.1790830728733,0.007053274417246498,0.00034004673546333985,0.006713227681783158
1488.24293701811,0.028409049722957887,0.0003759129214956421,0.028033136801462244
1490.2648681374335,0.03308879586179713,3.646940647547069e-05,0.03305232645532166
1490.727088843239,0.03646075525586889,6.947260028265423e-05,0.03639128265558624
1492.3694372378811,0.012176951006680958,7.772434987996452e-06,0.012169178571692961
1493.6786624901001,0.011181237870823072,0.0002450409238341417,0.01093619694698893
1494.3805857687564,0.005827399600154144,7.874377693238857e-05,0.005748655823221756
1498.9069098304199,0.029153711331483808,0.0002681325710225818,0.028885578760461227
1499.4855390168407,0.02460878008740015,0.00045321832546741135,0.024155561761932738
1500.3864720474148,0.003460525826516745,4.6181161244489295e-06,0.003455907710392296
1501.4978739467501,0.0038473418728334086,4.009009349577156e-06,0.0038433328634838314
1504.5303445829188,0.003730744692278165,6.366358053297278e-06,0.003724378334224868
1505.7641061458987,0.0033208197720195226,2.7440910521814356e-06,0.0033180756809673413
1511.1067352329221,0.00677480020448888,0.00028251259603671424,0.006492287608452166
3010.8787408335984,0.4289121440025331,0.27342183255029995,0.15549031145223313
3021.49730370678,0.18655894125516484,0.1770991172664026,0.009459823988762238
3022.4040066826283,0.10585772819175744,0.07382921121168907,0.03202851698006837
3024.096192826261,0.35639079269717816,0.2523435027461034,0.10404728995107476
3025.0138452701513,0.5127968750436624,0.38852545605506705,0.12427141898859534
3025.54733945111,0.2981894209787349,0.293690183489329,0.004499237489405907
3026.766740063853,2.292925813290826,2.123849502140195,0.169076311150631
3030.8529872897075,0.018460826269935143,0.010734632574070722,0.007726193695864423
3032.049901684749,0.05001406739811722,0.02780064581855302,0.022213421579564203
3033.365944575802,0.10918449424873915,0.01862074964031959,0.09056374460841955
3036.375390410463,0.40247846381724084,0.24637846088099327,0.1561000029362476
3036.541101334353,0.21535249852781108,0.09374273443776147,0.1216097640900496
3038.6767195779103,0.15221128358366512,0.11266975084255065,0.03954153274111447
3040.7260062774944,0.10002614685088795,0.02024740793643885,0.0797787389144491
3041.641750993943,0.1651365577337367,0.008329947370375294,0.1568066103633614
3043.6672889251695,0.2912360676676556,0.05071122467945184,0.24052484298820373
3044.1324172805157,0.14101912307111,0.00044611147629188035,0.1405730115948181
3047.042299658203,1.5956740294692673,1.524182780875361,0.07149124859390632
3047.279030750879,0.5635223475810653,0.43655074925170384,0.12697159832936147
3051.030872971313,0.4173896350042233,0.00889323166358325,0.4084964033406401
3053.111907647879,0.7007611599783989,0.6603269133640172,0.040434246614381816
3053.539391641743,0.6366962821432153,0.500952150547162,0.13574413159605325
3055.4095987656137,0.7489953055229117,0.5893554264803145,0.15963987904259727
3056.0129841632256,1.142495886726297,0.8272249072085642,0.315270979517733
3057.622764624006,0.6042203555539201,0.2988267511622423,0.30539360439167784
3059.565075785405,0.14882038153913724,0.09724631876457623,0.051574062774561016
3059.9166710534437,1.29417565344509,1.2186600450043152,0.07551560844077455
3064.5041657806846,1.2124302696824745,0.6408024868079406,0.5716277828745339
3065.4018083944134,0.2197600938032167,0.06317315016029396,0.15658694364292275
3066.9309175128815,0.1463860386231815,0.020130240893987805,0.1262557977291937
3073.9337860265578,0.2535819407026081,0.00801509830967009,0.245566842392938
3075.6404446276465,0.03136936160148011,0.0027455383287352075,0.028623823272744903
3079.848098111395,0.18225855197154142,0.041157706438469,0.14110084553307242
3081.141804761215,0.1609229794176717,0.05749670117182018,0.10342627824585152
3083.1349615790905,0.13397721799967513,0.0020644910527028285,0.13191272694697231
3084.673373899983,0.19590491209311944,0.004204925304092332,0.1916999867890271
3086.3182245697226,0.37961463807769097,0.14273362956777103,0.23688100850991994
3091.6124355124093,0.09170513657383617,0.025569682463085615,0.06613545411075054
3091.9944168554557,0.2290704199639953,0.0910313314845513,0.138039088479444
3094.0336246039674,0.4294107399239314,0.24914287944855315,0.18026786047537824
3095.6726417018517,0.2571551475627966,0.001409250810192849,0.2557458967526038
3098.7838432484828,0.048974875108905774,0.006586527757683761,0.04238834735122202
3101.6205933239285,0.8641749282634323,0.5029514328537414,0.36122349540969095
3105.5842455073953,0.36221176116104714,0.0021845513667008466,0.36002720979434627
3119.808511876465,0.09184130157610512,0.015239391748714332,0.07660190982739079
3123.8712069840576,0.2663411139906237,0.03440148360501834,0.2319396303856054
