frequency_cm1,total_intensity,isotropic_intensity,anisotropic_intensity
4.140205303418537,0.0,0.0,0.0
0.6285100294285071,0.0,0.0,0.0
0.42901896995322825,0.0,0.0,0.0
3.186024404706703e-05,0.0,0.0,0.0
2.0818616260868456e-05,0.0,0.0,0.0
3.868147564310233e-05,0.0,0.0,0.0
3.428946401380436,0.0,0.0,0.0
14.233815797568724,0.0018415648223046835,1.962588266131619e-05,0.0018219389396433674
24.859171115196272,0.0010714231275813118,1.821921872652043e-05,0.0010532039088547913
38.12368494330476,0.0007673497391360193,6.114493310074261e-05,0.0007062048060352767
51.9677072558092,0.001191948324797172,1.4913316558152465e-06,0.0011904569931413568
65.28426380959938,0.001015565734719592,6.85650795902335e-05,0.0009470006551293585
67.30073883248822,0.0009638111699942856,1.47427411703278e-07,0.0009636637425825824
78.30951551690191,0.0022134049770481884,0.0004371924185694045,0.0017762125584787837
93.2233700203194,0.0004077451222303869,5.981627655751945e-05,0.00034792884567286746
106.5923065621347,0.0024129445238755573,4.408897118178492e-06,0.002408535626757379
109.80912008691347,0.001352432672777795,0.00040509245767524847,0.0009473402151025465
136.86585753026455,0.0033746938218608097,7.58784225055924e-06,0.0033671059796102506
141.8732979597847,0.0011705861651266664,3.8639858701772076e-05,0.0011319463064248943
155.51835823693708,0.000271851945622453,5.6065552110992774e-05,0.0002157863935114602
192.39150775016168,0.0017785906764431275,0.0008331376231412052,0.0009454530533019223
222.96000150398936,0.004749792962050777,0.004061718452739861,0.0006880745093109156
234.04255459838,0.013183473110335887,0.011200351128784973,0.001983121981550915
241.26537136456636,0.0002617901435601562,0.00013217766921905453,0.0001296124743411017
246.23656247363238,3.2338626677228754e-05,4.968384337292449e-07,3.184178824349951e-05
263.8770725448803,0.001469318056133743,0.0003103301558231375,0.0011589879003106054
274.95437055891665,0.004142680846356458,0.00016910144762224627,0.003973579398734212
311.2416117791174,0.00176060357140064,7.218081158140586e-05,0.0016884227598192342
359.43418924199113,0.010599092396574455,0.0008418722669818902,0.009757220129592565
371.8950580880304,0.006714900966207805,0.001062842893072113,0.005652058073135692
416.77655734589854,0.010305393825562233,0.0015416382618960547,0.008763755563666178
452.65204143973057,0.012317834688805563,0.0010450990861706386,0.011272735602634924
480.4348608377781,0.0031866939399938414,0.00031628484948525667,0.002870409090508585
524.8148388757133,0.012345382151013117,0.00010458075148201434,0.012240801399531103
582.0847546001537,0.023812719357402097,0.0002458907980660912,0.023566828559336006
728.4940469872865,0.002067019524765045,2.039817999956016e-05,0.002046621344765485
729.1548331545744,0.000853439797538225,3.885682219666948e-06,0.0008495541153185581
736.1592529604783,0.0007951160200452874,1.1604374223585435e-05,0.000783511645821702
742.0171890783723,0.0012249804587196223,1.063259586892078e-05,0.0012143478628507014
766.0297770663257,0.0016239811156835004,1.4460636438436752e-08,0.0016239666550470619
772.5804264774085,0.003910000431232465,0.0018668209250894247,0.00204317950614304
800.9501191449796,0.008758374015356292,0.00016631948446275505,0.008592054530893537
832.6304599786133,0.0005387991287225089,4.271686466718877e-06,0.00053452744225579
852.7962837825812,0.007176927878866392,0.0006604326271465259,0.006516495251719866
863.7287875739822,0.056908748058442205,0.04072134779555956,0.016187400262882644
908.9176427701358,0.025983035700459796,0.01634417015369299,0.009638865546766805
922.7628280242176,0.00127064997289301,4.131309575933933e-05,0.0012293368771336707
925.3719113275157,0.006554688136207543,0.005114990183401594,0.0014396979528059485
984.8734144206063,0.00216124768807254,0.0013546924642326831,0.0008065552238398572
1015.4354744969148,0.005803121471456068,0.0019266011182561059,0.003876520353199962
1016.1909175639655,0.004690263324665538,0.0008197594298474985,0.0038705038948180395
1028.6215463779815,0.018147641689495064,0.005609677383898129,0.012537964305596935
1050.3628732652433,0.04826890656028372,0.02779133009029738,0.020477576469986346
1055.385916723276,0.07329706469331583,0.039183312617981816,0.034113752075334014
1056.5733232620235,0.03102404326418231,0.012154850495417174,0.018869192768765135
1059.56392741439,0.05005123355263655,0.023332921132173164,0.026718312420463387
1071.8596851374116,0.01051934484049281,2.8515311432741626e-05,0.010490829529060068
1085.1576370315665,0.013670069376677073,0.008300077231600785,0.005369992145076288
1091.3309947492417,0.05729733056355232,0.005813060811351828,0.051484269752200496
1107.4736346251075,0.041096773575213554,2.1104446360245772e-05,0.041075669128853305
1137.5628892873337,0.009860844027339746,5.808449501017839e-05,0.009802759532329567
1139.4470948495093,0.0008808777963810462,0.00011900855177761459,0.0007618692446034317
1145.641421920462,0.025357078488335568,0.0007626442707324945,0.024594434217603073
1147.931119113275,0.13912949665506047,0.08661640412917523,0.05251309252588523
1163.8211734250754,0.0011895176382725997,0.0005811375676569479,0.0006083800706156517
1202.3265585796998,0.019995800203713172,0.011231443652383396,0.008764356551329778
1216.9440844377655,0.004219047781719604,1.3289494499649908e-06,0.004217718832269639
1240.7626964027777,0.0014826054728194187,0.000915532820783621,0.0005670726520357978
1247.9587987503542,0.006132128986392822,0.0018952944803119396,0.004236834506080882
1266.1233592919498,0.001152321904841614,1.3092805804623334e-05,0.0011392290990369907
1268.9583980977332,0.00153844565520155,1.597253637668524e-06,0.0015368484015638815
1291.5910307955453,0.003284765323321655,0.0011043742631306232,0.0021803910601910317
1292.6165621100258,0.007058119629304864,0.001743325735507861,0.005314793893797003
1307.2544558560282,3.2284673310818874e-05,1.155715121786506e-05,2.0727522092953814e-05
1317.295292733359,0.0006268761612766965,4.989273922581008e-05,0.0005769834220508864
1325.2548688296727,0.03287780843352679,0.0020482660448981845,0.03082954238862861
1326.621801911445,0.06751302487375938,2.393307318196483e-07,0.06751278554302756
1331.3598013618705,0.03240904613714544,0.00033065381382503165,0.03207839232332041
1332.7459521005815,0.009809914153741687,7.920763445771513e-06,0.009801993390295916
1336.2808662153905,0.0016116681303001373,2.5439306618223725e-06,0.001609124199638315
1339.2730040262177,0.022666838150898108,0.003919167661250634,0.018747670489647473
1344.227312053437,0.0380988523385924,0.009628324007880627,0.028470528330711772
1349.7041026683012,0.024650575848330344,0.002325260643750388,0.022325315204579955
1385.1867301796603,0.06602997539522446,0.019161988530130902,0.04686798686509356
1395.2977564304501,0.06705828115062704,0.01825295695668688,0.04880532419394015
1407.04299780318,0.011759282974529576,0.004142003069879911,0.007617279904649665
1409.0579032393755,0.03200829958084578,0.007561307483982503,0.024446992096863275
1411.9522376706811,0.007019386556151273,0.0029124181006733555,0.004106968455477918
1413.6392428471265,0.009224099711094943,0.004103045913504092,0.00512105379759085
1415.882456609362,0.008125788932595504,0.0004270557382881193,0.0076987331943073846
1419.719524189315,0.008023509641780143,0.0010048815008316223,0.007018628140948521
1478.5849684926004,0.028954213584707247,0.0004311158952927145,0.028523097689414533
1478.7388184586111,0.01488523140008679,0.0047277256228583624,0.010157505777228428
1481.8036330125096,0.07963673934640447,0.0035812122005695578,0.07605552714583491
1482.2544498625275,0.055333850781316876,0.003788962468639315,0.05154488831267756
1482.338706854566,0.048307275125872524,0.0028108496255114337,0.04549642550036109
1482.809508713706,0.04728433478247453,7.124585448488662e-05,0.047213088927989644
1487.9470722332508,0.06212101166761877,0.008621987956973994,0.05349902371064478
1489.4958662835415,0.014799308592958228,0.005858018350065607,0.00894129024289262
1490.915428782771,0.01650985344698127,0.00015001661704357744,0.01635983682993769
1493.643889194928,0.008229883191825466,0.0027992037160839735,0.005430679475741492
1493.8783616478102,0.027012082514741697,3.2257971267249136e-05,0.02697982454347445
1494.4826471708318,0.027932855727888214,1.7871393270115263e-05,0.0279149843346181
1501.3484959022662,0.003778246559802664,0.0018685044206648417,0.0019097421391378227
1502.0582255514719,0.008826556350401409,0.0021083827068366584,0.006718173643564749
1504.4304375006898,0.005123724277410361,0.0012042644726120927,0.003919459804798268
1506.0423970133409,0.005371180486198418,0.0008528659101669236,0.004518314576031494
2387.1075179773025,2.8779118473741505,1.5772432586012237,1.300668588772927
3022.6270182699777,0.041751102329575907,0.04133964465315753,0.00041145767641837547
3024.3144720783193,1.2894745528966527,1.2311698003427842,0.058304752553868404
3025.62276781424,0.13381813081357216,0.07474114663565544,0.05907698417791672
3028.7436086817506,1.296884085829398,1.1098022611056424,0.1870818247237556
3032.1345858326968,0.2131201707826345,0.19268985655392795,0.020430314228706548
3034.646818844716,0.025809158651554052,0.003833322198728769,0.021975836452825283
3041.4046827757243,0.3718503533859134,0.3407470732683058,0.031103280117607608
3042.866365560319,0.36333362417222037,0.28951929238509777,0.07381433178712259
3046.1391465486618,0.8046547022582495,3.3834683696036206e-07,0.8046543639114125
3048.0263414464175,0.15425156390430422,0.012284791539512317,0.1419667723647919
3049.815139686729,2.192247954062503,2.11941487999817,0.07283307406433323
3050.225098845358,1.1108986088077604,1.1029439943530588,0.007954614454701492
3050.8744265557625,0.9187012689750802,0.9128029360404694,0.005898332934610863
3054.0124490928383,0.0004273055640411154,7.068625461611615e-05,0.00035661930942499926
3058.576925046906,0.05991600395939779,0.004607184364888211,0.05530881959450958
3059.055137138758,0.1311139439167426,9.8802535650339e-05,0.13101514138109227
3060.739013882337,0.2417851042387649,0.024125290561035174,0.2176598136777297
3063.8685940629857,1.0045310618592884,0.5088673862750721,0.4956636755842163
3069.920388495618,0.28481252856814854,2.2709803292956024e-05,0.2847898187648556
3075.688151437343,0.2441910757583282,0.0007742664691481907,0.24341680928918003
3078.4230283205497,0.14034922828252927,0.0002680292639753474,0.14008119901855393
3084.351499747796,0.12605506816869705,2.0973827188418362e-05,0.12603409434150864
3084.988505154347,0.13380749391818322,3.5188671190331484e-06,0.1338039750510642
3087.30096985257,0.0811108632035742,0.0049444386991700255,0.07616642450440418
3104.293593532834,0.006435672954035975,0.00020367219418372323,0.006232000759852252
3105.8800816834746,0.011910573624686225,3.059105460986035e-05,0.011879982570076365
3113.29802014049,0.13003985857121728,7.841823568214132e-06,0.13003201674764905
3114.6452771874715,0.12478484486162976,1.810203546856626e-06,0.12478303465808291
3121.5984356185945,0.40853432008933904,0.06267175306221275,0.3458625670271263
3122.6644696527987,0.36510780104907614,0.04828638631658157,0.3168214147324946
