frequency_cm1,total_intensity,isotropic_intensity,anisotropic_intensity
1.273867136736911,0.0,0.0,0.0
0.5941757537610126,0.0,0.0,0.0
1.5224688004859281e-05,0.0,0.0,0.0
9.751276168858458e-06,0.0,0.0,0.0
1.3288272184525472e-05,0.0,0.0,0.0
1.5450080301271034,0.0,0.0,0.0
40.745586976223734,0.0018430032820460885,4.28507963955057e-05,0.0018001524856505829
42.81316265752671,0.007896358167895995,3.592076192406498e-05,0.00786043740597193
58.5650375354716,0.018211484808133796,0.0001318737654394786,0.018079611042694316
71.2136908460898,0.007928644581221167,2.8323292906465538e-05,0.007900321288314702
81.77727901720651,0.011757711470934106,7.769983527004295e-05,0.011680011635664064
92.57011912729931,0.003816820252775426,0.00034662884057531105,0.003470191412200115
119.75359013103746,0.0012140934649512744,0.0003215791475175279,0.0008925143174337465
155.26739751418106,0.000395637618081631,3.0318368091782e-05,0.00036531924998984904
177.9726899221366,0.001314648815129099,2.829547481074976e-06,0.001311819267648024
193.17681150736925,0.0011854831675184574,0.00047074552904243714,0.0007147376384760203
239.24081680331093,0.0012261666542821824,2.7237298614417465e-05,0.0011989293556677648
252.83710435855494,0.0075576500315396875,0.0011244615218049807,0.006433188509734707
282.38445751562494,0.0032678166914109842,0.001567053961162965,0.0017007627302480191
298.80355087121745,0.02541056501887111,0.021102730415894444,0.004307834602976665
343.21672312842657,0.008642210307288532,0.003280885477246945,0.0053613248300415865
359.3379385894237,0.004759751941064978,0.000632723694744714,0.004127028246320264
380.07183697588033,0.011122571796838295,0.006210663938464036,0.004911907858374259
413.94099952680455,0.005211850578128127,2.624369879252855e-06,0.005209226208248874
424.15804276943135,0.001875331522540681,3.9352138586046216e-05,0.0018359793839546347
448.67301444506893,0.004785713329563156,0.0013660360781846991,0.0034196772513784566
500.75025972019927,0.004738296300950323,0.0015731439950112205,0.0031651523059391027
549.4562958053139,0.007570523600601791,0.0065514586730004935,0.0010190649276012975
622.4039020238245,0.0038695647820243357,0.00011925615188770792,0.0037503086301366277
633.6131159715095,0.013967969701718222,1.6798681352348634e-05,0.013951171020365874
650.3264268870449,0.006079080578405709,0.0030714321061136142,0.0030076484722920955
720.9240611999107,0.015248283651869253,0.012064291803220958,0.0031839918486482946
731.5149250604467,0.00545154217756982,0.0038957628146484547,0.0015557793629213657
762.5794909625346,0.00424358193183453,0.0029782642792202775,0.0012653176526142527
772.2658667719181,0.0016151190828359377,0.0009470728041317705,0.0006680462787041672
812.9661743721961,0.0195874305896206,0.016043965598647476,0.0035434649909731218
819.1081278626184,0.0292648451577721,0.028018634132420946,0.0012462110253511531
850.1948335105501,0.014482582148974217,0.01193012809730643,0.0025524540516677872
884.3385728910832,0.003477625001186077,0.0001618246661361131,0.003315800335049964
904.0456280094378,0.03416164769023042,0.018218466290392588,0.01594318139983783
917.8407635089982,0.040041187173685294,0.03102534362567222,0.009015843548013078
938.1846311859563,0.015094979098395871,3.979962549858511e-06,0.015090999135846012
965.845879726892,0.0013010474998518026,0.00012665145936511572,0.0011743960404866868
974.9723059388804,0.006462414798568664,0.0016407612530144069,0.0048216535455542575
988.0392347825543,0.0053335762282105395,0.001069161324327456,0.004264414903883083
1008.6816146897228,0.028733439588344026,0.010796235683147526,0.0179372039051965
1020.3818224872931,0.00030135477306495573,2.9963395554667096e-05,0.00027139137751028866
1026.825025736929,0.10251969585222089,0.08782052641990873,0.014699169432312151
1032.6002054179132,0.0005552039629569684,0.0004471076089302592,0.00010809635402670916
1044.5689581666784,0.14775004847634454,0.13649725967809404,0.011252788798250502
1066.6580356169172,0.08021331185260663,0.0568582983882076,0.023355013464399027
1074.894102285135,0.02021747289086216,0.005562578968626921,0.014654893922235238
1089.9415371265131,0.002233555719380522,0.00021769694488655672,0.002015858774493965
1114.559422568591,0.020593007628064222,7.779179744500542e-05,0.020515215830619216
1118.899184901111,0.005506144302064733,0.00024045054005157818,0.005265693762013155
1161.2027369446857,0.016609154794251884,1.4714802560296345e-06,0.016607683313995855
1177.9635975245765,0.011534418928845661,0.00013811066258934474,0.011396308266256316
1179.4804189223287,0.0029891014980706677,2.5332338993881245e-05,0.0029637691590767862
1190.2849058801824,0.014060022611069848,0.01133409854313183,0.0027259240679380174
1210.3299861445398,0.02077581773978217,0.0011262928742058322,0.019649524865576338
1217.2417941294066,0.007432625563502809,0.0006212149146745483,0.006811410648828261
1219.4046435965352,0.006986069895960984,0.004630409538038205,0.002355660357922779
1238.469860223176,0.03808800793598489,0.014640052618369943,0.023447955317614944
1244.9982112334794,0.05520339002797647,0.054073938470488414,0.0011294515574880562
1272.7129229468062,0.004956418230822899,0.0002705057491134781,0.004685912481709421
1275.766700323073,0.013322600573718594,0.002679776875238308,0.010642823698480287
1297.928207216467,0.008099479585079252,5.672602392257187e-05,0.00804275356115668
1316.3219365331938,0.003635123320813589,0.0003385899906260426,0.0032965333301875465
1324.5425360098884,0.01221403037533525,0.0011079793668553163,0.011106051008479932
1337.579297808622,0.011709190015203,0.005875831006630745,0.005833359008572254
1342.0672051452457,0.010233771042973315,0.0008511034965378661,0.00938266754643545
1351.585313296495,0.015431692980831201,0.00025170529237126735,0.015179987688459934
1360.280540765903,0.002622056207408894,0.0001668026204229469,0.0024552535869859474
1375.557637016665,0.00877593425677494,0.0011159736916585641,0.007659960565116376
1410.8897949614372,0.011746945119305697,0.00020574585338319404,0.011541199265922503
1475.8274604824844,0.008597049147280033,8.508384034840856e-06,0.008588540763245191
1476.543484526449,0.02721631470253119,3.0771731501401594e-05,0.02718554297102979
1485.160205622267,0.05052718548611255,0.00036347112294969993,0.050163714363162845
1493.518420075252,0.006579609605752934,0.0005946419495908854,0.005984967656162049
1493.838190345996,0.019020825751805942,5.903933271599189e-05,0.01896178641908995
1496.656085439143,0.005699493778492557,0.0009536597896254597,0.004745833988867097
1497.8524689524509,0.027129200202429708,0.006589998911662104,0.020539201290767604
1521.5356544804981,0.005950364808703346,0.00018200412035341808,0.005768360688349928
1541.4231374585702,0.0008660376564131418,0.0005532280159852114,0.00031280964042793035
1659.936032893386,0.03337060337290717,8.10912483368911e-06,0.03336249424807348
1681.0068874869175,0.11169782064968177,0.006984529438027511,0.10471329121165426
1832.9451355760382,0.022520388181140785,0.009305817222678987,0.013214570958461796
3052.478046435083,0.6618263022482311,0.4043827777024553,0.2574435245457759
3065.26644105536,0.454956964565032,0.26576032376474473,0.18919664080028728
3073.0991054118745,0.23571638605862422,0.15366832676985226,0.08204805928877197
3078.135149759057,0.15458151410575038,0.10785159536560569,0.04672991874014469
3081.476385822434,0.9880876618955436,0.8569565985362839,0.13113106335925978
3084.6411929428955,0.855556681979545,0.8325090099175673,0.02304767206197777
3103.6730312154777,0.23735886397713105,0.05556208361812731,0.18179678035900373
3121.0466273479624,0.589075593778562,0.190326280278417,0.398749313500145
3142.647205989063,0.3338077693559075,0.11699229668490276,0.21681547267100476
3155.409648089418,0.29552067984365055,0.17263246689370168,0.12288821294994885
3159.6767520683775,0.22477197846779212,0.0034716903135258294,0.2213002881542663
3192.267234479427,0.3509896386822642,0.0443642247174044,0.30662541396485976
3193.0629470324084,0.13485443577375986,0.0008940897998486288,0.13396034597391124
3199.7511026345915,0.4010177762808514,0.026389467206758176,0.3746283090740932
3209.463838327628,0.24738476155939707,0.00013057659453099744,0.24725418496486606
3219.0639652308605,0.4183039927170579,0.289024608372228,0.12927938434482994
3225.725945979129,1.0830897185669348,0.892215059761293,0.19087465880564178
3833.029376753436,0.24724788448302115,0.13586471683732754,0.1113831676456936
