frequency_cm1,total_intensity,isotropic_intensity,anisotropic_intensity
0.5542487079149385,0.0,0.0,0.0
0.46592325126625944,0.0,0.0,0.0
2.1034417239520426e-05,0.0,0.0,0.0
1.7547319171258995e-05,0.0,0.0,0.0
2.5880808208901916e-05,0.0,0.0,0.0
2.6848114924954296,0.0,0.0,0.0
14.680734928986519,4.477844107479505e-05,6.933605753547073e-09,4.477150746904151e-05
23.16826783196913,3.56449415553599e-05,9.818809236482386e-08,3.554675346299508e-05
34.216409111609266,0.000416888388132094,6.084186752737312e-10,0.00041688777971341873
40.21489814612163,0.00039797086249185125,7.88380048383524e-08,0.0003978920244870129
62.5922155251164,0.0003881098935570919,2.2590557848113892e-07,0.00038788398797861076
67.73689110187618,4.824781007703021e-06,1.2958301875807785e-11,4.824768049401145e-06
75.39118009266278,8.715684254882175e-06,4.852956243467861e-07,8.230388630535389e-06
101.9768767919774,0.00010176328644160345,3.599127278979684e-08,0.00010172729516881365
112.357352588021,6.31967308071575e-05,6.270265940998045e-06,5.692646486615946e-05
118.50403465149871,0.0005012453306815999,0.00013154547608848296,0.000369699854593117
133.65029182663878,6.367215735225686e-06,4.461524928950548e-07,5.921063242330631e-06
147.14738085467795,3.451520124726498e-05,1.8149854636694715e-05,1.636534661057026e-05
153.1284236449698,0.02161221285929335,0.013385228558814912,0.00822698430047844
159.33974378247785,2.368309119371301e-05,2.406890104765464e-07,2.3442402183236462e-05
173.0799949248989,9.028721677166208e-06,1.8252193082563907e-07,8.84619974634057e-06
175.1768437709267,2.973781138617301e-06,8.897784267284142e-09,2.9648833543500166e-06
186.82896275589573,4.213845730134218e-05,7.318075482157653e-07,4.1406649753126414e-05
239.618741499304,0.0006083340908931708,2.8983802863828717e-05,0.0005793502880293421
245.85744974783378,2.105843401680704e-05,7.077347993238726e-13,2.105843330907224e-05
269.6557183322981,0.00016191975225126606,1.9445605094031654e-05,0.00014247414715723441
296.34146001552847,0.00011077827864344964,4.826024023494563e-05,6.251803840850401e-05
350.3123855324924,8.778725234697729e-05,4.908285041227518e-05,3.870440193470211e-05
408.4045308695022,0.0057212751332561835,0.0034816687947088537,0.00223960633854733
432.97379457641557,0.0018071470201172306,0.0013568413859763352,0.0004503056341408955
482.0650011529505,9.382686735113821e-05,4.385525994727197e-06,8.944134135641102e-05
506.01754063327064,2.2157701880896033e-05,4.286336086786715e-06,1.7871365794109316e-05
523.340453870721,0.0008282252289697393,0.0003764866664368795,0.00045173856253285973
727.9167328463687,2.0416170557511513e-05,2.0693472835866084e-09,2.0414101210227927e-05
728.5968217076863,9.785186376664054e-05,1.5550063443504817e-08,9.783631370319703e-05
731.1113492559074,6.818661814154366e-06,2.209009758757777e-07,6.5977608382785885e-06
737.6846704532339,4.462875555169447e-05,4.901034454541129e-07,4.413865210624036e-05
750.3181409856365,6.616550047629009e-05,3.904587649961592e-07,6.577504171129394e-05
770.8431100180097,0.0002160150784040035,2.99306209991335e-05,0.00018608445740487
798.8075834299003,0.0006062693836621463,0.00038775553794744987,0.00021851384571469647
825.6956861989047,0.005195403483733143,0.0026037761428570135,0.0025916273408761294
849.367484047561,0.002248452410097948,0.0015018048710057628,0.0007466475390921851
890.2140607517467,0.00115611580988681,0.0004438915126138931,0.000712224297272917
908.3429047208867,0.03323129746110581,0.020255474863551826,0.012975822597553987
935.8431074338661,0.0007887746910474249,0.0005565142694677474,0.0002322604215796775
973.7172322844392,0.01202829162468777,0.007249798780960986,0.004778492843726783
987.4838638117174,0.004786751612442437,0.0028126990219450396,0.001974052590497397
1008.1195882016044,0.0003638829110709663,2.949687150291584e-05,0.00033438603956805044
1015.7622835873278,0.0048515290891382856,0.002299846848234626,0.002551682240903659
1026.8337185637324,0.001712611075605343,0.0009613000412622976,0.0007513110343430452
1032.9662962793302,0.0045180788457688985,0.002437072338873616,0.0020810065068952825
1056.1224895618168,0.0017448906638332224,0.00024298280793106538,0.001501907855902157
1059.061511911405,0.0015447625915824506,0.000297822539635706,0.0012469400519467446
1061.778288696541,0.003400663887562762,0.001335768491905719,0.002064895395657043
1078.2001910303134,0.00873127715285057,0.002848840217208972,0.005882436935641598
1087.75223343837,0.0016104559129850053,8.773993545582117e-05,0.0015227159775291841
1088.9017784429514,0.11276307525310235,4.454206379950469e-06,0.1127586210467224
1091.7674073037758,0.00028627587808832206,1.5290644397975187e-05,0.00027098523369034687
1092.854987716796,0.005941070372633061,0.0001018336427063746,0.005839236729926687
1101.3989461521771,0.013977235413514588,0.0009297145125829398,0.013047520900931649
1113.7694426748515,0.06614305087604655,0.032565209668574825,0.03357784120747172
1146.6900002597904,0.027341614039613663,0.01410628809023146,0.013235325949382204
1162.279703334715,0.21760795193110777,0.12736989928178447,0.09023805264932332
1204.169873308954,0.017129103558161128,0.0016016048850424074,0.01552749867311872
1213.8680820420725,0.005181831019725088,0.0039073234832757075,0.001274507536449381
1223.4807430845779,0.0008144251659263172,8.758477628882811e-05,0.0007268403896374891
1237.313860900009,0.001836392128578352,0.0014599127771659688,0.0003764793514123832
1248.4955092357989,0.00038929836370022375,0.00011489968008063047,0.0002743986836195933
1262.073285026959,0.0013400666405299043,0.001098054606545264,0.00024201203398464013
1273.4807414346237,0.00023417887410146033,6.790419357993754e-05,0.0001662746805215228
1285.8512969833987,0.0015634589130168262,0.000938760902700688,0.0006246980103161382
1297.3482624651756,0.000531828372327244,8.71050915880748e-06,0.0005231178631684366
1307.4643755154568,0.0004782684435644039,0.0003303902106596425,0.0001478782329047614
1317.310442603224,0.004173019116496906,4.525856504319629e-05,0.004127760551453709
1324.025304523985,0.17685220076433378,1.1480018400559819e-05,0.1768407207459332
1326.8822137215946,0.0058743261576525525,7.787096924418034e-05,0.005796455188408372
1327.5830151180187,0.0005336843115567961,7.822304192318706e-05,0.00045546126963360906
1332.3295653229593,0.0020465988494001584,0.0004062091186240189,0.0016403897307761394
1332.7229312451386,0.006571110488825135,3.1567642985396823e-05,0.006539542845839738
1336.2345136871731,0.0015140437729313475,0.0001376024612651109,0.0013764413116662366
1337.4590056822167,0.0007919363114021056,4.982626012517716e-06,0.0007869536853895879
1338.9016402007023,0.0001458960980110791,1.3442700324497796e-05,0.00013245339768658133
1355.1240155989096,0.0007746699433273332,1.1331523189252256e-05,0.0007633384201380809
1378.665655430399,0.00024237282537310212,0.00010598674686923751,0.0001363860785038646
1397.7697955923754,0.0013585189639933766,7.817417331756638e-06,0.00135070154666162
1410.7463743121477,0.0002188607475882337,0.00015654933209911895,6.231141548911475e-05
1413.255398815736,0.0013541407492033415,0.0006175289935371927,0.0007366117556661489
1419.0427202440242,0.008841200234625458,3.61845949760644e-06,0.008837581775127851
1420.609835680398,0.006546525070666715,8.31797137170807e-06,0.006538207099295007
1421.5387410249004,4.005415750492616e-05,1.795976861918757e-05,2.2094388885738592e-05
1437.682199803929,0.0022941892453480616,0.00019340962527908314,0.0021007796200689785
1480.2073256413444,0.001035752208603741,1.8644477149617394e-05,0.0010171077314541238
1480.2499470847522,0.0015409942179094391,1.455388220768816e-07,0.0015408486790873623
1482.0371847958502,0.001924176004435727,0.0002753934532082148,0.0016487825512275123
1482.3454378190033,0.0007032380107720215,1.8433517117187844e-05,0.0006848044936548337
1484.4799894470768,0.004360946622980131,0.0001596913165747992,0.004201255306405332
1484.755729950532,0.21178844100417543,0.015461193761352781,0.19632724724282266
1486.8497517620349,0.0811970973979338,0.003223680280098271,0.07797341711783554
1489.7928998258305,0.0004936455991790263,4.680838211824738e-06,0.0004889647609672015
1493.5840466986606,0.011216672205270464,7.142902568129191e-05,0.011145243179589173
1493.7407784377406,0.027042100094892368,3.90640917891274e-10,0.02704209970425145
1497.4938680852122,0.0001761702946871867,6.85732667763867e-07,0.00017548456201942284
1501.1921832254966,0.0037569890615069385,7.65659040209723e-06,0.003749332471104841
1504.3494808750863,0.0012041314889493786,4.206363128998621e-05,0.0011620678576593924
1506.295620264898,0.0015982481255677583,1.9271703598601794e-05,0.0015789764219691564
1512.7615648807455,0.01567140713911555,9.649553343266309e-05,0.015574911605682886
1657.7934219563172,0.01393660877632111,1.0571571206695097e-05,0.013926037205114414
2979.439805476998,0.47941710953440625,0.33691105740476707,0.14250605212963918
3021.129010272123,0.02386683308173532,0.02158480949641888,0.0022820235853164396
3021.4795473376735,0.0027066967863256246,0.0021479790445349373,0.0005587177417906873
3022.712640584951,0.10332112604306301,0.0902615816391427,0.013059544403920301
3022.9293793014117,0.013596938034643076,0.01067934585058319,0.0029175921840598864
3024.1740466857077,0.4811305861638245,0.4697319016339266,0.011398684529897897
3025.1872910761344,2.296412415094182,2.254008367754368,0.04240404733981363
3025.6337906640124,2.502943676228473,2.4042327479604775,0.09871092826799524
3028.1580634399043,0.04265729532707299,0.008152301860810122,0.034504993466262866
3031.7772036381293,0.18876232253804498,0.15085317675637888,0.037909145781666084
3035.6725945022085,0.06222543883353431,0.02938047374478729,0.03284496508874702
3038.8860200112954,0.1489710854470238,0.10682371916424797,0.04214736628277585
3041.156687765203,0.3733498260935337,0.34195548063252773,0.03139434546100597
3042.808940975386,1.486276290767626,7.251092361402109e-06,1.4862690396752645
3043.9066521655323,0.0043268879216861586,0.0007611397107825928,0.0035657482109035655
3046.116877713834,0.37518822318275125,0.004344693255320794,0.37084352992743047
3049.544587878389,0.01628964586063065,0.008317760007950396,0.007971885852680253
3049.995855368931,0.9188820176575045,0.9115950961382994,0.007286921519205204
3054.1997874804947,0.1456979680051354,0.009719797587987552,0.13597817041714785
3059.909531136131,0.005600723598004539,0.00434903965238142,0.00125168394562312
3066.3993001373974,0.2290804185865584,0.0022984755013847986,0.2267819430851736
3068.431907071955,0.09270183767341957,0.03972177090620315,0.052980066767216415
3073.8801318364167,0.06480194375166651,0.01321285665560012,0.05158908709606638
3079.7696523997256,0.048376465137809674,0.010673663782300863,0.03770280135550881
3085.0105065929606,0.025075138244630396,0.010055726408204924,0.015019411836425472
3088.9944992820356,0.014230516053291516,0.005769459347668711,0.008461056705622805
3094.9202285993683,0.0892315082754054,0.07537298917980667,0.013858519095598727
3112.971114160166,0.12902253507835898,1.484375151906485e-13,0.12902253507821054
3121.0730289592284,0.4091579831413003,0.06221303145797213,0.3469449516833282
3537.993638726876,0.7035857211630735,0.6013591514633736,0.10222656969969993
3611.643959079056,0.33358883467728023,0.02850859662322253,0.3050802380540577
