frequency_cm1,total_intensity,isotropic_intensity,anisotropic_intensity
0.8014592060583149,0.0,0.0,0.0
3.344793683848457e-05,0.0,0.0,0.0
2.1184915777444148e-05,0.0,0.0,0.0
1.7177849844282656e-05,0.0,0.0,0.0
1.192962159240347,0.0,0.0,0.0
2.3921835908861984,0.0,0.0,0.0
18.80715371797134,0.028229635096425187,8.220445925629726e-08,0.02822955289196593
28.70274626681472,0.00319616008660528,1.1133296829412646e-06,0.003195046756922339
38.365970660050635,0.02760864698231698,1.0383617738790286e-06,0.0276076086205431
44.48614197076257,0.015534873575113076,0.0005697183276801293,0.014965155247432946
91.62819371456128,0.001022198375790828,0.000308911574180847,0.000713286801609981
94.20143631647791,0.0006832245747389685,8.888524784879034e-06,0.0006743360499540895
128.54670329949985,0.005302307495167848,2.1702735593247035e-07,0.005302090467811915
130.97268108819276,0.0014696218231179765,0.0006734852183508533,0.0007961366047671233
153.96376682659525,0.0007527771740092196,8.352430616226936e-07,0.0007519419309475969
172.07679797929364,0.0011723545302175997,2.3524946207879593e-05,0.00114882958400972
180.16956852147337,0.0006298261119520219,4.795923786365989e-06,0.0006250301881656559
183.20058089583986,0.010445429398469333,1.2658380236296994e-07,0.01044530281466697
194.2336063991912,0.0010621937688451608,1.5749904839218297e-07,0.0010620362697967686
226.67345899655254,0.0043574225392010325,6.11819444881106e-06,0.004351304344752221
246.7852203371855,0.01180276024427265,0.00813924285850091,0.00366351738577174
296.75257206366103,0.008281969739965766,0.000575780946942814,0.007706188793022952
353.69995710078047,0.010147130104596381,0.0069169620686739776,0.003230168035922403
355.67674750477494,0.001957961819869088,5.59698380672752e-05,0.0019019919818018126
356.09325417525315,0.00809451381882258,3.688873759810646e-05,0.008057625081224474
372.2852253504188,0.00303890811154096,0.0008594222758530841,0.0021794858356878758
404.84313580511696,0.0066376710912457,0.0006819593198236194,0.0059557117714220805
408.90658993477797,0.0008522790138835977,3.173564330753673e-08,0.0008522472782402902
416.9974238470641,2.0935332383090685e-05,3.581808569123711e-08,2.0899514297399448e-05
448.6017599738166,0.0022799827549435437,1.7034621953506064e-07,0.0022798124087240086
458.8387890395562,0.026538558892186974,3.527421355279554e-09,0.02653855536476562
495.5717360416599,0.0192617071641783,3.649917710208688e-05,0.019225207987076214
516.8504165772159,0.07070375147007621,0.0579464207417687,0.012757330728307512
569.1861128777382,8.616038069122299e-05,3.1836151484303035e-06,8.297676554279268e-05
586.068451761051,0.09088509324497304,0.08091048915706413,0.009974604087908909
593.0837740201599,3.689218531772484e-05,1.0563520002279329e-06,3.583583331749691e-05
630.8924376665648,0.027126487197185866,2.33249036977777e-06,0.02712415470681609
654.8212324304191,0.03294195131247411,0.030910315238511784,0.002031636073962328
683.7043172670707,0.032219452589801606,0.024404398855333218,0.007815053734468384
713.6506112471038,0.0002203107124174584,1.9516251429322912e-07,0.00022011554990316516
728.825661546654,0.0009198563076952286,6.595036915219325e-07,0.0009191968040037067
761.1234054040555,0.0027496557514026126,3.8579402017402133e-05,0.0027110763493852106
791.0477103748343,0.0031185513265078457,0.0004955867336998278,0.002622964592808018
806.92454196746,0.0024109926690895566,5.078443755059108e-07,0.0024104848247140506
871.2626469867571,0.0005103115809569524,2.4499802192539594e-07,0.0005100665829350271
880.2352914322713,0.0038393774015411425,1.7167891943427364e-07,0.003839205722621708
916.8023106032075,0.009491407974145058,0.0063995920691885646,0.0030918159049564934
978.0502963352812,0.0011089280792171221,1.991952961945912e-08,0.0011089081596875026
998.0593569884278,0.005832872429517567,2.131788158767098e-06,0.0058307406413587995
1006.3435384847095,0.008548227401297239,6.925110541720648e-05,0.008478976295880031
1016.9334810992399,0.002095733621633417,0.00026918531317699846,0.0018265483084564183
1020.8348870749813,6.769813214052189e-05,2.6459334569018076e-08,6.767167280595287e-05
1029.044903361588,0.17374733653771604,0.14860561673011088,0.025141719807605156
1033.454832412293,0.0008052048719704517,1.1718525004811427e-07,0.0008050876867204035
1038.2039476676166,9.795737404017482e-05,7.329268356582309e-08,9.7884081356609e-05
1048.0309268376693,0.0010619108584347726,2.1207188378431455e-07,0.0010616987865509882
1049.86026307245,0.001401323287081692,0.000796878670712601,0.0006044446163690912
1059.9160452896574,0.16620440154517846,0.14290988383435274,0.02329451771082572
1066.6667265733613,0.00014634888425624277,2.202030725170377e-06,0.0001441468535310724
1075.2939259848724,0.0005380265891151988,5.696742216978742e-06,0.0005323298468982201
1091.4832867693108,0.019652590396889377,0.015552566645395484,0.004100023751493892
1102.9238041712078,0.021278013296804933,0.017546939290939218,0.003731074005865714
1103.2227085053094,0.004363891741730779,0.003297697743982355,0.0010661939977484245
1113.4126436984734,0.018952667336110743,0.01398157836774498,0.0049710889683657646
1121.9288816141482,0.0015470400694853517,1.3895870075039212e-07,0.0015469011107846014
1177.7898337186305,0.029586543383091402,0.0006281975754484771,0.028958345807642925
1199.1641068922781,0.027642627360845565,0.01128033870651784,0.016362288654327727
1242.7609296312985,0.1614314146803392,0.1269394673776012,0.03449194730273799
1286.8672345523669,0.003983461464947388,7.274672443284365e-07,0.0039827339977030595
1306.4743781560035,0.05211332302579749,0.04604882904934692,0.006064493976450567
1323.3028635473713,0.007050669390490435,0.0056476593125180195,0.0014030100779724155
1349.472982529888,0.05855210223156391,0.03972908364841769,0.018823018583146216
1365.9645549626619,0.08481865551385091,0.04388714421390167,0.04093151129994924
1407.5151150362262,0.029642319585748013,1.2665550613498475e-06,0.029641053030686662
1408.5866364067754,0.023515202781151077,0.00025480983491295707,0.02326039294623812
1413.5631920736992,0.0014270590805398847,1.240531061185329e-06,0.0014258185494786994
1414.2025619539788,0.01933022023120566,0.0033625263895940604,0.0159676938416116
1420.1207325718594,0.07107633984381034,0.037499748452442735,0.0335765913913676
1461.299153330517,0.007040835463415131,2.0932669787650285e-05,0.007019902793627481
1463.1862604486425,0.006626522214163923,0.004142121298329715,0.0024844009158342083
1471.951136755934,0.0489160732998712,4.001534386483169e-05,0.04887605795600637
1472.3601901562115,0.0458481750030577,4.007507157063964e-06,0.04584416749590063
1480.9979139179684,0.005463068343237308,0.004393707165752392,0.0010693611774849165
1484.89008407312,0.027259725784778907,2.0165968672960333e-05,0.027239559816105947
1493.1112477930305,0.004821030814868283,9.30082280068353e-05,0.004728022586861448
1493.6779690539815,0.011995834566015249,0.008114710200180836,0.0038811243658344137
1499.7278320310209,0.034027678464186535,0.0006673637397934429,0.03336031472439309
1507.8121801636898,0.020476897588194605,8.452122131216595e-07,0.020476052375981484
1509.617222097897,0.0016771486068815778,9.798762450421588e-07,0.0016761687306365357
1513.3690961611353,0.021329595451246252,0.0004380804882350345,0.020891514963011216
1526.0397324626088,0.019174771697508787,0.0009532560091113423,0.018221515688397444
1537.248483585422,0.027669596830694466,0.016870590339089758,0.010799006491604708
1656.2194913424316,0.09578917635555359,0.00021335981471109667,0.09557581654084249
1656.2800565137086,0.10360381291790924,1.2766013037267334e-05,0.10359104690487198
1659.5359419873055,0.038367263386347966,0.001365514354761685,0.03700174903158628
1675.8646725789104,0.5162616223237775,0.1319986498295964,0.38426297249418107
1781.6217086679846,0.28570329589301924,0.18723696402586168,0.09846633186715759
3051.680539455704,1.4021449406152526,1.1331681327296763,0.2689768078855762
3053.127850411352,0.26643802091698515,0.0031368421287001507,0.263301178788285
3054.029266878682,1.6196232090862872,1.5616567468382039,0.05796646224808326
3063.9577655327594,0.12845269073796084,0.06134869806356391,0.06710399267439694
3064.8016415227507,1.8875913200071428,1.7486693707382353,0.1389219492689076
3112.3582638614153,0.35310986156430574,0.056346159420564985,0.29676370214374076
3113.091385256909,0.45487353429954913,0.08925748417136523,0.3656160501281839
3118.0406561373266,0.4566146854041934,0.00016134418151455648,0.4564533412226789
3118.747873977709,0.1501556744889608,0.0007719138924453771,0.14938376059651542
3129.950412783421,0.3807060488182808,0.16329002256626793,0.21741602625201287
3158.482780973302,0.02260200845214596,0.0018005325638557573,0.0208014758882902
3159.0066896799826,0.30886906736826986,0.045942843438784776,0.26292622392948506
3159.592913534493,0.12013021219157795,0.00019900717526445704,0.11993120501631349
3168.6550791828868,0.2742175545187643,0.025004942597122576,0.24921261192164174
3169.1590385747636,0.2186413748994568,0.00474535769673784,0.21389601720271895
3194.468166081055,0.19781442121477516,0.0001900171478410012,0.19762440406693416
3205.1650592919946,0.5661092722000086,0.005328832797438752,0.5607804394025698
3212.87309128608,0.21144340421743663,0.07623294415227568,0.13521046006516094
3221.036298250377,0.3521074816447887,0.242682545565232,0.10942493607955671
3227.041451034127,1.1828214428232386,0.9289587076655743,0.2538627351576642
