frequency_cm1,total_intensity,isotropic_intensity,anisotropic_intensity
1.942775006563083,0.0,0.0,0.0
1.4586305417679513,0.0,0.0,0.0
3.0479231075117005e-05,0.0,0.0,0.0
1.3723855641492796e-05,0.0,0.0,0.0
2.9113009957566117e-05,0.0,0.0,0.0
2.105688673391503,0.0,0.0,0.0
12.471444615896088,0.0018458614529184452,3.719683607783789e-05,0.0018086646168406074
31.2204685651497,0.0010722823461014291,7.186465939128283e-05,0.0010004176867101462
43.61106061886534,0.0011640610390732148,8.7940518142915e-05,0.0010761205209302998
46.99896398847281,0.0005665564669301759,4.783517412723918e-06,0.000561772949517452
53.46677534461623,0.0010518981906466607,5.4152708542543335e-05,0.0009977454821041174
70.02035828946114,0.0011632471742178316,0.0003582813967689169,0.0008049657774489146
101.04489526258692,0.0008165400827823168,5.670802407183801e-05,0.0007598320587104789
108.73930501061196,0.0005573177790597036,0.00024445885904152983,0.0003128589200181737
127.1938252340366,0.0028395442900330066,0.0010406790216020668,0.0017988652684309396
136.63633603634324,0.0003055441800463526,8.195520376628195e-05,0.00022358897628007066
138.61510025977944,0.0006059755029628143,0.00036658186452195673,0.00023939363844085763
147.17498347016752,0.0025268269159780914,0.0021022464154215595,0.00042458050055653213
206.21141758430673,0.018767906368427276,0.013135400579880508,0.005632505788546769
244.24915846260086,0.001612409873865974,0.0011499897621313662,0.00046242011173460774
245.2472151249846,4.399586226042681e-05,2.414759303902877e-06,4.1581102956523936e-05
248.5604921720129,0.004143815435934292,0.003540195129415202,0.0006036203065190894
283.95109545560706,0.002292597223141026,0.00012270080622447133,0.002169896416916555
319.40317562810395,0.0070340735246895835,0.0015829320389370227,0.005451141485752561
338.02843168981576,0.003435937770030063,0.0012036190736753464,0.002232318696354717
367.76355844418447,0.0016181028671183376,2.6579537046058538e-05,0.001591523330072279
413.7266143135248,0.010739058723875476,0.006201384853059911,0.0045376738708155645
468.65038938298807,0.002804213129456788,0.0004709306660645575,0.0023332824633922307
501.7668582489423,0.0035284221626880664,2.1255084671333525e-05,0.0035071670780167327
550.0400961946722,0.003380869273065752,1.0677168780386282e-05,0.003370192104285366
622.1882161647713,0.07719953825033278,0.046156528097498546,0.031043010152834234
716.497146775478,0.08885275604298055,0.010759966861828243,0.07809278918115231
734.8957064890758,0.0015742731373437648,3.52617411914937e-07,0.0015739205199318499
736.1568833212942,0.001017676761303863,5.846205207096424e-05,0.0009592147092328987
765.3576234308754,0.0019568349414450384,7.024554224977853e-07,0.0019561324860225405
770.5559987782514,0.004789474946209534,0.00022340830132996583,0.004566066644879568
793.1062473138129,0.011099433601080632,5.565940244707759e-06,0.011093867660835924
859.1121430613283,0.0014606908344977072,2.7265392492306194e-05,0.001433425442005401
859.9436796680336,0.002550060242601524,9.556860883869866e-07,0.002549104556513137
909.652852402182,0.016152366811146693,0.003605406379982037,0.012546960431164657
911.5136766833447,0.029528862608450397,0.02384513799033843,0.0056837246181119655
984.2327909387425,0.07884211266203078,0.03604473774246252,0.04279737491956826
987.7998633261194,0.001933312742105783,0.0006535884498623918,0.0012797242922433913
989.7332740391349,0.0007918318287812317,0.00018599051488579128,0.0006058413138954404
1028.4496241955685,0.14816969103381683,0.07478916057323759,0.07338053046057924
1042.1449957627667,0.005092093925591858,0.0019765891256604976,0.0031155047999313606
1044.7108890167715,0.0326394336224354,0.020247737537348647,0.012391696085086753
1080.202762825477,0.022190286435256758,0.00103124749728201,0.021159038937974748
1082.5554911528927,0.03886644634116632,0.008241043201006767,0.030625403140159557
1087.6230115075523,0.038675677544965696,0.0007229306620298116,0.03795274688293589
1089.330457019487,0.01871589121358704,0.002122717872233265,0.016593173341353774
1146.6024159147821,0.0882548081713324,0.06404536957759731,0.024209438593735085
1149.0985493389098,0.05247932939362332,0.033616707165690034,0.018862622227933286
1188.3894038966632,0.0046645081818425145,0.0004185712191375682,0.004245936962704947
1192.450353222635,0.014741424554979864,0.002969523933553957,0.011771900621425906
1216.0183460374985,0.08785265482559948,0.02514909391527151,0.06270356091032797
1246.1028414999398,0.0015182498076308395,0.0006469354143250804,0.0008713143933057591
1250.1253952450763,0.0030554333928007,0.00027177191139121523,0.002783661481409485
1272.8930041891767,0.003081524319773124,0.0015956502852860896,0.0014858740344870348
1274.0851612016436,0.002587465620816214,0.0009268945288804444,0.0016605710919357698
1307.9156472478862,0.005808654343311686,0.0006989788451610458,0.005109675498150641
1308.377222796118,0.01260585257927694,5.133196874723883e-07,0.012605339259589468
1329.7301024546662,0.04903596242752944,0.0033054257496210283,0.04573053667790841
1333.9382749307335,0.04526694748996212,0.00028385805547322666,0.04498308943448889
1337.4255360391546,0.01927584709699786,0.000307633662174256,0.018968213434823605
1338.1905490621189,0.018403669850355887,0.00013047268794420087,0.018273197162411686
1353.091100005984,0.0053753872930531145,0.0025865368270736183,0.002788850465979496
1354.992351780724,0.010040827688377937,0.002188047013276381,0.007852780675101556
1406.5682699014785,0.005579419249182526,0.0005927820651532374,0.004986637184029289
1407.0454806446514,0.006878254610547414,4.5047908224488784e-05,0.006833206702322925
1414.9217063877202,0.0021340926480831928,0.000637349608434255,0.0014967430396489378
1415.0568056871973,0.0031251724546460472,0.0016125955947599803,0.001512576859886067
1426.5785988168136,0.009676616776513361,0.00023063959774498883,0.009445977178768373
1430.710557247349,0.006279306456663548,0.0003017829662943845,0.005977523490369164
1482.8883519105807,0.05446293143594578,0.004936594148234769,0.04952633728771101
1483.0101131767053,0.04682570565527094,0.0006943701465195888,0.04613133550875135
1485.1139438768002,0.02141780089472009,0.010279859799632767,0.011137941095087322
1487.6088783149394,0.0025735087324796273,0.0010255392451056704,0.001547969487373957
1489.474032112507,0.05869065811414298,0.008680913062728935,0.05000974505141404
1492.3853245404161,0.07992472045366858,0.007599875749702122,0.07232484470396645
1494.6413232889863,0.027063641924497506,3.380878183978018e-05,0.027029833142657726
1495.047162375187,0.02722689739309694,4.514536377324821e-06,0.027222382856719615
1498.317300996306,0.002276022238015234,2.9375942228658698e-05,0.0022466462957865755
1501.0982969664435,0.0038251142673116504,2.9890493747138373e-06,0.0038221252179369367
1506.2016677244767,0.0028136738274721156,2.356384770436437e-05,0.002790109979767751
1508.0771515016986,0.001119023771092429,3.726643431038915e-05,0.00108175733678204
3024.619140267397,0.6652337472063569,0.6193861197501581,0.04584762745619878
3028.7986094478133,0.7046766629228506,0.6576982328727424,0.04697843005010818
3044.24842460014,0.4377374069967923,0.4016691860127421,0.036068220984050235
3044.943949899988,0.2789497545025462,0.24969846142277768,0.029251293079768544
3051.499341865146,0.8312187407822065,0.8174422657188017,0.013776475063404734
3052.8321346903635,1.1419790629601043,1.1294023837101208,0.012576679249983427
3053.913353408907,0.5231268770006076,0.029493520858503822,0.4936333561421037
3055.8143218367554,0.36973059414905407,0.29495907225721335,0.07477152189184072
3058.2327807590805,0.5430513383153414,0.09172314458249148,0.4513281937328499
3069.023269984344,0.6040953029283738,0.5616728430914387,0.04242245983693505
3076.7827503340473,0.4591730161429469,0.4449960195031462,0.01417699663980073
3080.9622576853453,0.09561646413668891,0.006969645480353467,0.08864681865633545
3081.7730061213038,0.03668382783130012,0.002259840982956947,0.03442398684834318
3099.266090215877,0.2026602756566837,0.0025922041749537046,0.20006807148173
3101.84870392189,0.37237913465469313,0.3445758536689146,0.027803280985778556
3113.211297110878,0.2761943374505581,0.011519187316287493,0.2646751501342706
3116.080112634968,0.031036792341363417,0.004111031330036792,0.026925761011326623
3116.988462451332,0.10363369411692039,2.5268621457886356e-06,0.1036311672547746
3124.7718961433216,0.4055897856355018,0.06107344379721709,0.3445163418382847
3126.7345448872643,0.4187511509799188,0.06441239845793525,0.3543387525219835
3134.0085759002095,0.16302451324624456,0.05390281564378968,0.10912169760245488
3160.161226890215,0.17258925801143324,0.06085420129041215,0.11173505672102109
