frequency_cm1,total_intensity,isotropic_intensity,anisotropic_intensity
1.6273539913581159,0.0,0.0,0.0
1.425207947111787,0.0,0.0,0.0
1.70612353338001e-05,0.0,0.0,0.0
2.3050440109537865e-05,0.0,0.0,0.0
3.102072863244285e-05,0.0,0.0,0.0
0.5830450837500184,0.0,0.0,0.0
20.411416499658706,0.0038147818407741237,0.00025236825901996037,0.0035624135817541635
22.925484050174,0.0021975460221548672,6.157850894402392e-08,0.0021974844436459234
23.86259470644494,0.0016479666678699753,2.4311702512607323e-05,0.001623654965357368
72.03652914972429,0.0005571417367844868,1.447896308393118e-05,0.0005426627737005556
80.68629116125605,0.004923086676288337,0.0007718714245068681,0.004151215251781469
95.0192728969912,0.003037011847385661,7.731520624123832e-05,0.0029596966411444227
116.38204636342235,0.0007119379477964336,1.1439518540875501e-05,0.0007004984292555581
118.52380998125524,0.0012752174838618815,5.3268328659059564e-06,0.0012698906509959755
131.1275122786008,0.0023400967445552125,0.000712214055971078,0.0016278826885841344
186.94711567730386,0.02922139118365452,0.018682621198970416,0.010538769984684105
223.98972833080825,0.0013339006300400222,4.3225496467424965e-05,0.0012906751335725972
225.11341753333946,0.0010915308474188016,0.0008228028717158868,0.0002687279757029149
244.3066108275404,0.006619088051737218,1.6204590878073588e-05,0.006602883460859145
253.01662557720584,0.004488497089974943,0.0026309730897824553,0.0018575240001924872
254.9641098170701,0.0006649370137938682,0.0001451421746812513,0.0005197948391126169
257.3545991518194,0.003629942095980437,0.0022354910996528685,0.0013944509963275686
273.23380165071455,0.0024681208180387256,1.5212100495150119e-05,0.0024529087175435755
383.38160843040833,0.0073437109616768005,0.006081144803047752,0.0012625661586290493
394.22410133177834,0.0012431833312151921,7.518492679975239e-06,0.001235664838535217
415.1490997008326,0.01243534014019701,0.009100045463485595,0.003335294676711415
418.2786363600668,0.0024997167142494945,2.6059272315305223e-05,0.0024736574419341895
447.57004288180286,0.005871212562936319,0.005173772987897838,0.0006974395750384803
454.3163905508754,0.0003986049356677483,1.4431820264091904e-06,0.0003971617536413391
557.9643427458673,0.031015423530607898,0.0163445411518272,0.014670882378780697
760.4576773662108,0.013746262348031894,0.0032093176252162153,0.010536944722815678
760.8704367283539,0.012809203960856127,0.0012477722509350094,0.011561431709921117
784.2325972258869,0.027847003190921663,0.004071622461173048,0.023775380729748614
785.5221451671375,0.03148923837815185,0.012171838002191885,0.01931740037595997
848.9929448731543,0.05391036105666551,0.020727625024435863,0.03318273603222965
849.4692121739105,0.17339788236746992,0.15770725299748398,0.015690629369985942
930.4565224294323,0.001768413576990382,0.00018026565336534884,0.0015881479236250333
930.7028363811648,0.0017288973962118095,0.00022666271673235313,0.0015022346794794565
936.9408936266237,0.0040951634364162146,3.671489272516591e-05,0.004058448543691049
939.537957566336,0.007388920117851763,3.859597656863103e-05,0.007350324141283132
967.8894903189403,0.012014053900532713,0.0011047634388490185,0.010909290461683695
968.3334671347162,0.01244575074398466,4.232576971436749e-05,0.012403424974270293
982.2051869264675,0.025524149233143622,0.0006493965022824006,0.024874752730861222
983.4295127170844,0.013068475651498256,7.805882841736761e-05,0.012990416823080888
1064.25995502467,0.011835442637742865,0.006627459154514546,0.00520798348322832
1065.504688248868,0.008191807819910562,0.0020059845971707496,0.006185823222739813
1092.2745408393978,0.008692789994865027,0.0011678341422182255,0.007524955852646802
1098.434292029156,0.007625464723067118,1.4640550218220017e-05,0.007610824172848898
1148.0723384152175,0.046635846830743365,0.017992565960193673,0.02864328087054969
1148.8077180739542,0.024538747117671563,0.001071164742620896,0.02346758237505067
1198.524396149811,0.010035405086021422,0.00047188727468906196,0.00956351781133236
1198.9712142917408,0.01066203016238951,0.0009712613894534901,0.00969076877293602
1220.006906576264,0.013877403956684098,0.010531185929203374,0.0033462180274807236
1222.3301297001608,0.013178657724240511,0.0012471440535900288,0.011931513670650483
1250.2089848718006,0.004134234546131771,9.914304234547483e-05,0.004035091503786297
1252.5113996752052,0.03440483745409241,0.021481152246992485,0.012923685207099928
1308.5708357411759,0.010981917614005078,0.002671450773107146,0.008310466840897932
1312.1582499266844,0.028638750130357583,3.715679644462088e-05,0.02860159333391296
1333.9786521473302,0.020187309572065944,0.00014152066654274067,0.020045788905523203
1335.7611208550602,0.01848664834043356,0.006706231768506683,0.01178041657192688
1372.2828398410393,0.025781542071418643,0.0004531188309937075,0.025328423240424936
1372.4870629547822,0.03193465612055427,0.0008397386804255868,0.031094917440128683
1390.8677521619218,0.026088151507773015,6.945800906181457e-05,0.0260186934987112
1391.86410284993,0.030144395112538268,0.009481407079365676,0.02066298803317259
1405.209254628993,0.0030461427500850136,0.00028853246010501386,0.00275761028998
1405.2931813926782,0.0030302199014751088,0.0003659239467056875,0.002664295954769421
1419.2178169332055,0.0015290866845486593,0.00041090865105473565,0.0011181780334939236
1419.3885275199982,0.0011517831472284156,0.00028512305922417176,0.0008666600880042439
1474.58065266453,0.06117229079800558,0.022354320471564167,0.038817970326441416
1476.5282920231755,0.027521355680339928,0.00013732742408963222,0.027384028256250297
1482.7644498745904,0.029884834024024937,0.003199121704969241,0.026685712319055695
1484.4606235253823,0.07529122853118843,2.5367258993878078e-05,0.07526586127219455
1485.843192197575,0.015502159140602685,4.760361344784223e-06,0.015497398779257902
1486.464253700902,0.007956653073951585,5.7792395251042916e-06,0.007950873834426482
1492.741562997001,0.009415760788244545,1.320724948884458e-07,0.009415628715749656
1492.8545654359918,0.007898185424117465,0.0007746881818916504,0.007123497242225814
1498.7239091308618,0.030320300701625325,0.00030069649519232555,0.030019604206433
1499.0257769378516,0.031920757163160195,0.000687475573260489,0.031233281589899707
1505.9476223611669,0.0034499604994748835,2.2362358567613644e-05,0.00342759814090727
1506.2687441990338,0.003321132736443903,5.759249587534535e-06,0.0033153734868563685
3029.1056550718713,0.6639525420649077,0.40558593210141675,0.258366609963491
3030.2418676856987,0.7457762165368098,0.5007462461629367,0.24502997037387314
3040.9676234979247,0.06182552048962883,0.002921777965435964,0.058903742524192865
3041.007595545733,0.04876280284284221,0.033229444484190934,0.01553335835865127
3047.5129785633717,0.0786765950071277,0.06799907131283608,0.01067752369429162
3048.0147532914134,0.1202220225599636,0.11008542843195562,0.010136594128007975
3051.933727939075,1.3430366334700337,1.3273677882813306,0.015668845188703054
3052.3166937660544,2.061283280043799,2.038518542383967,0.022764737659831696
3074.415484159001,0.281761934943418,0.1859569144401189,0.09580502050329912
3081.5698177742406,0.16096924843618057,0.0003833688083786525,0.1605858796278019
3083.3307000642335,0.120876217946307,0.03586761674559133,0.08500860120071567
3085.2293165436035,0.41155370642617695,0.38024852080600496,0.03130518562017196
3110.408552937026,0.07567152867453725,0.0020322086990330964,0.07363931997550414
3110.815636901669,0.07273613145070172,0.0014277608288246098,0.07130837062187712
3115.5904617000992,0.5966898078464364,0.18761200866905037,0.4090777991773861
3115.896575357455,0.5725514733600192,0.1693798599398303,0.4031716134201889
3123.979859668381,0.31996197492291245,0.013856020071527935,0.30610595485138453
3124.1100499698987,0.29888569944260995,0.012732345743710358,0.2861533536988996
3128.5193919073,0.26636959163262897,0.0018388172257472885,0.26453077440688166
3129.996737100087,0.23540496680816786,0.0009167090145311069,0.23448825779363675
3144.764234274881,0.08920842525277307,0.01226815708497452,0.07694026816779856
3148.159174604106,0.12493450177570845,0.033985537768508614,0.09094896400719983
