frequency_cm1,total_intensity,isotropic_intensity,anisotropic_intensity
1.733574496430737e-05,0.0,0.0,0.0
2.694344322925205e-05,0.0,0.0,0.0
3.142957203167218e-05,0.0,0.0,0.0
1.1618575071044188,0.0,0.0,0.0
1.3954353287242138,0.0,0.0,0.0
1.6572561654676041,0.0,0.0,0.0
13.797043257789294,0.008328573881174332,9.242768106147541e-06,0.008319331113068184
26.29333079210264,0.003424520123078078,7.7903736703162e-05,0.003346616386374916
43.46019341205337,0.001943578414319048,1.5617237804384447e-05,0.0019279611765146637
64.04570862016907,0.0018824127665401308,2.5503465208213814e-08,0.0018823872630749226
78.75607210551266,0.003070320576427124,0.00012938312813174721,0.0029409374482953768
100.02657210194144,0.0013063554770085428,2.1670756724000602e-07,0.0013061387694413029
108.92853512892101,0.0006367725594057629,0.0003244933752967714,0.00031227918410899145
121.66472583359277,9.289181964986194e-05,2.9603532030729594e-06,8.993146644678898e-05
134.3223187949235,0.0027017427379087194,0.00033374144531606617,0.0023680012925926535
150.58901886849065,0.001980944305662225,0.00020578373853972289,0.001775160567122502
177.9968562707222,0.002200066039101648,0.0012613357266568431,0.0009387303124448044
187.1063849523059,0.004938106457698807,0.0026449292771000624,0.0022931771805987447
211.98033242419535,0.0009620290249695504,0.0006407204944065967,0.00032130853056295367
236.3042777442732,0.00018695127620928372,6.841164539614212e-06,0.0001801101116696695
249.33025624890834,0.002508309562225082,0.00042506431233524193,0.00208324524988984
262.5485969349889,0.003663429399102971,0.0009366931331255633,0.0027267362659774076
291.4057102308983,0.004496024479866002,0.004238694576603835,0.0002573299032621666
304.5536089280682,0.0012912451402441526,0.00021542394678680774,0.0010758211934573448
320.0109056906975,0.006559368294305048,4.1535642523855445e-05,0.006517832651781192
333.7438454552307,0.007928071685016316,0.004258377343345987,0.0036696943416703303
361.2235505856733,0.001979871546616836,0.0008481873422256713,0.0011316842043911646
389.2528194500503,0.004157369957723511,0.001859738461424319,0.0022976314962991915
424.4724565655497,0.015091255948460214,0.011533024881620422,0.0035582310668397935
432.455461970172,0.011886439602751382,0.005190943699080439,0.006695495903670942
437.44726823374174,0.0011162884571479853,0.0006495927298294185,0.00046669572731856675
446.99662072949366,0.010264455260805562,0.006937731922946288,0.0033267233378592737
458.8740993237063,0.006878961908021748,0.0002381825574860447,0.006640779350535704
491.49044467832624,0.010527440098595381,0.007925138554694736,0.0026023015439006446
516.3803692962817,0.010849329403890898,0.00547036641448744,0.005378962989403459
564.1485839253872,0.01630960210845181,0.008878609400549159,0.0074309927079026505
578.4317434485979,0.0028838572610577545,2.3092507753625395e-05,0.002860764753304129
590.9213137427055,0.01034414282486344,0.008258282139791576,0.0020858606850718635
624.2680301627589,0.0008073319613977313,3.732287155670533e-05,0.000770009089841026
657.7202106325934,0.026159015470061994,0.01493820115528044,0.011220814314781554
678.5522414173214,0.019607799783073924,0.017282640577891133,0.002325159205182791
738.546745956936,0.013462274305185108,0.010908166440978369,0.0025541078642067395
744.6295590353282,0.03467327241603535,0.032184414532044694,0.002488857883990658
764.2856959324399,0.024188667647462393,0.01688836887608791,0.007300298771374484
848.4576866501292,0.024482393761317615,0.018481912075713924,0.00600048168560369
854.934074948975,0.017535030124256293,0.013685035668216087,0.0038499944560402045
857.1245917367742,0.0066407620872855466,0.001970471632438665,0.004670290454846881
874.033646493722,0.013921263364202751,0.00618328595874291,0.007737977405459841
886.8059183292269,0.0023825723354043704,4.810904387526412e-05,0.002334463291529106
904.9514636824139,0.010940962116394783,0.003731667960846917,0.007209294155547866
937.5376192586222,0.0014783139782068525,0.0008417675120077138,0.0006365464661991387
949.3099196838687,0.0051847691812944765,0.0022097438718969653,0.0029750253093975107
958.5756961158913,0.0042515565763669395,0.0004430404215133261,0.003808516154853613
969.5049279021752,0.0026447316529605576,7.60386854168157e-05,0.0025686929675437418
982.5181319877513,0.01481959343317151,0.01060724057215637,0.00421235286101514
1018.6135368648689,0.0017028062505868122,0.00042600485357523844,0.0012768013970115737
1030.036713232546,0.013840882891198636,0.000407629861382134,0.013433253029816503
1052.0301245103956,0.019307228258226034,0.00383835117201798,0.015468877086208055
1066.268582323335,0.024311575915993734,0.0010470777066920057,0.02326449820930173
1083.6907311511948,0.016937979806102788,0.00265919118037816,0.014278788625724629
1092.3798698962678,0.010967940849619405,0.008354985001908602,0.002612955847710802
1105.5498363336258,0.02322852660973325,3.985441661496493e-05,0.023188672193118286
1127.5166752625887,0.015470983080401103,0.007481286060042644,0.007989697020358458
1135.350351123281,0.005518745360162293,0.001104078764151865,0.004414666596010428
1150.5607881621122,0.014954182184855974,0.00629839197320803,0.008655790211647944
1162.1275848500954,0.02072718460721618,0.0010688298371865571,0.019658354770029623
1167.8935182625705,0.0026964471537189653,7.762107581907589e-05,0.0026188260778998895
1175.7095455334716,0.01133481671267506,0.0002496757784247619,0.011085140934250299
1188.3819666738536,0.014265586190168877,4.002104941482712e-05,0.01422556514075405
1198.2395516894894,0.024842903716901416,0.007194006038038139,0.01764889767886328
1221.3658136633608,0.03709049994761681,0.0036271224870742585,0.03346337746054255
1243.6770274140729,0.008579027497331247,4.552679721406063e-05,0.008533500700117186
1281.5249382009704,0.010577617333199894,0.0026302567998771464,0.007947360533322748
1285.4602494212204,0.007410293211257319,0.0002707099649663607,0.007139583246290959
1290.3268259659594,0.013278496105564981,0.0011414741092371792,0.012137021996327801
1292.3932030182348,0.02614211869188591,0.00043298855015631816,0.02570913014172959
1298.1916568503457,0.009634251851585944,4.008985648611796e-05,0.009594161995099826
1311.7489141870367,0.002572187978292111,0.0008886886559864237,0.0016834993223056873
1322.2876873721232,0.028438200103618545,0.002879233153633292,0.025558966949985253
1335.7301274702393,0.01697049556079191,0.003776513443090468,0.013193982117701442
1341.9278803194734,0.0016857768732361593,0.0005165254509443757,0.0011692514222917836
1346.0344771687396,0.024889059383935035,0.00040315773506563793,0.024485901648869397
1364.2318420660986,0.01838366622917948,0.0002051631094073546,0.018178503119772125
1381.595519312124,0.02286381510285728,0.0010832425036206592,0.02178057259923662
1383.8599309157746,0.010956625075900053,4.439074345086905e-08,0.010956580685156602
1392.0478329220434,0.008490983883908483,0.0003923623227615234,0.00809862156114696
1400.9007769008506,0.029307626486845612,0.0004487582996139874,0.028858868187231625
1406.4326610984567,0.016291145535725898,0.001286739642041146,0.015004405893684753
1410.4655569519539,0.018685518192955705,0.008654194160093187,0.010031324032862518
1412.0170609355357,0.004480017059040987,0.0004418669881626745,0.004038150070878312
1416.1792510748287,0.003909705219859843,0.0017685668225253938,0.002141138397334449
1421.8653782614967,0.021107292110167056,0.004734211659896926,0.016373080450270132
1427.7278131923595,0.02454879895117542,0.007337432319504607,0.01721136663167081
1437.0730168208559,0.002519569220977035,0.0003710248505050958,0.002148544370471939
1456.773902382653,0.02062616583420218,2.1241653921528873e-05,0.02060492418028065
1468.5321382528343,0.013617180714577962,0.0021455170565457173,0.011471663658032245
1475.3477174887696,0.004147780977749304,0.0009429752435097911,0.0032048057342395123
1479.735850439296,0.0056847620300423335,0.00013061657954573373,0.0055541454504966
1482.3993792116428,0.041171649484294276,0.0006241183898949417,0.04054753109439933
1490.876590591857,0.009167799996547014,1.4260526987587305e-05,0.009153539469559427
1492.7963073215299,0.0016578229327465317,0.0006634699166790464,0.0009943530160674851
1494.7570509952352,0.03411611213491786,1.0592112799544143e-08,0.03411610154280506
1496.7067868685235,0.03826992973926699,0.000770935153692992,0.037498994585574
1802.6187902248096,0.05352858986062278,0.018008689687217357,0.03551990017340542
1805.169370763437,0.037269063442505086,0.0019717769714789834,0.035297286471026104
1822.6045765330664,0.2479942826754436,0.17805021322922354,0.06994406944622007
3021.592645745995,0.7580803613234095,0.5805557603943872,0.17752460092902228
3024.0038036507945,0.786312212703334,0.5225745457284815,0.26373766697485246
3031.080708929115,0.06173972642064541,0.03618480233810566,0.025554924082539753
3038.9253140166816,0.18874849702719274,0.03305060992474466,0.15569788710244808
3042.724280983401,0.11086159794819764,0.09523170604123174,0.015629891906965895
3049.4074816124858,0.10705743599318651,0.07008674610072739,0.03697068989245913
3051.037470133752,0.03587793171809974,0.007827569742401676,0.028050361975698067
3054.4001435833125,0.886685933712192,0.853943202702856,0.032742731009336
3057.629416365271,0.781943103635879,0.7240783325013757,0.05786477113450336
3066.1348842265506,0.7417616043260965,0.7176884700542275,0.024073134271868926
3067.155477476974,0.7475663771086558,0.6358370509129239,0.1117293261957319
3081.9878601197343,0.09795573431997727,0.06716089390264673,0.03079484041733054
3086.728118197129,0.21489480090370056,0.067427033017585,0.14746776788611554
3090.761388186421,0.3028933932333504,0.10805564758277808,0.19483774565057232
3104.289447658049,0.19316615110197183,0.12196657353056006,0.07119957757141178
3117.6382289978487,0.31620048780198357,0.06362675472552297,0.2525737330764606
3126.1355483701127,0.30424244441803466,0.00508626205321543,0.2991561823648192
3131.722905572586,0.2815262321632331,0.00037363724205477245,0.28115259492117833
3140.5133744953096,0.34049113737087366,0.16778113235668657,0.17271000501418707
3147.469858280524,0.25979171385938293,0.020101148661475693,0.2396905651979072
3179.770001276749,0.3094267066625523,0.17891549089513303,0.13051121576741925
3611.760963201125,0.4123385090532655,0.2704472949999336,0.1418912140533319
3829.94759813109,0.23912039334691731,0.1938519482907026,0.045268445056214704
