frequency_cm1,total_intensity,isotropic_intensity,anisotropic_intensity
1.3370148290733006,0.0,0.0,0.0
1.0627414132593054e-05,0.0,0.0,0.0
1.8118318342417004e-05,0.0,0.0,0.0
3.9487956358068886e-05,0.0,0.0,0.0
0.5577718755963489,0.0,0.0,0.0
1.2175095545344703,0.0,0.0,0.0
20.600472215871406,0.020139960547937697,0.0004970394939134554,0.01964292105402424
23.89022782008415,0.007983364339751366,1.0512011199916279e-07,0.007983259219639367
46.65587788272232,0.023504542144558074,6.226249394479827e-05,0.023442279650613275
52.66258716225273,0.013092525925312182,0.00011696122477488506,0.012975564700537297
67.13386001512787,0.0010283929157697855,6.714176743381172e-07,0.0010277214980954474
76.42728995259563,0.002697941389051717,3.309892073148289e-06,0.002694631496978569
94.38365952391855,0.00412788922955663,1.113000626993759e-05,0.004116759223286692
115.02327882976572,0.010036591856351505,0.00010017678818882374,0.009936415068162681
130.4077370990015,0.012770983104669707,1.957475577850937e-05,0.012751408348891198
174.44606784888083,0.004114112171519614,0.0006191900104316774,0.0034949221610879365
184.93897754703693,0.00298549938494216,2.731265722301219e-05,0.0029581867277191478
201.35135482038797,0.011120767951623211,0.007654383132747335,0.0034663848188758763
228.22614029209637,0.005002273149091606,0.0011655721609391623,0.0038367009881524437
247.90476552496324,0.006352977278131667,0.0016330611525814612,0.004719916125550206
253.09320751730485,0.0005676240048760209,0.00024430691719171853,0.00032331708768430236
259.87017877197667,0.0014743331082275094,0.0002243484639383512,0.0012499846442891583
273.71181930973654,0.0006593163991898937,8.982793311343531e-05,0.0005694884660764584
287.9163640252419,0.0016902878695127619,0.0008618435935127448,0.0008284442760000171
304.4252074397832,0.005934385166665228,0.001380597062259695,0.004553788104405533
313.9172793117799,0.0018029461047103256,0.00019142498586718679,0.0016115211188431388
335.01430414305094,0.0025528243534171883,0.0003667254325104737,0.0021860989209067146
346.45563541993863,0.011057319644998752,0.004239817003874565,0.006817502641124187
361.81218625224795,0.0018879503163241568,0.0013665563184685914,0.0005213939978555653
372.26238457721064,0.008080158727745326,0.0038123800264791715,0.004267778701266154
382.5998783375251,0.013853082923188235,0.013259087296403134,0.0005939956267851017
418.85629395332376,0.00015843246930856577,1.7900796834773625e-05,0.00014053167247379215
420.87857724373646,0.00014829951752881072,0.00010262114688768223,4.5678370641128505e-05
430.7850281079132,0.002422598151244173,0.00021699922793080121,0.002205598923313372
450.33044737491866,0.0036049945923007243,1.784361341273207e-05,0.0035871509788879923
499.85810659504926,0.02275680417196242,0.01941306308672019,0.0033437410852422272
503.5563767794041,0.007085838647817654,0.00304924532474859,0.004036593323069064
541.2701015899469,0.010681739095981881,0.00608800425972718,0.004593734836254701
571.7414818173542,0.0022109212020216306,0.0006687219505366453,0.0015421992514849854
579.3452446765567,0.004474799917652735,0.002477228960173445,0.00199757095747929
602.1894756651307,0.01335040776661638,5.437101538141671e-05,0.013296036751234964
635.7108140687236,0.015878666353319134,8.44564381315553e-06,0.01587022070950598
636.3555421024181,0.013059712186397798,4.082560403202535e-05,0.013018886582365772
719.7342039533792,0.0024594162138026985,4.802205662031998e-06,0.0024546140081406665
722.3195352423779,0.00039005826240767587,0.00020403613031459077,0.0001860221320930851
725.3668029758846,0.00021932376836335225,0.0001528503319830252,6.647343638032705e-05
733.9079993561816,0.09811953448189184,0.09417966233276995,0.003939872149121892
777.6953524823385,0.00408185084441086,0.00011092148713073107,0.00397092935728013
780.8665323084546,0.007635266099593469,0.004567985077102772,0.003067281022490697
795.2498709861142,0.004865129775858902,0.001337465657647816,0.0035276641182110857
797.7342679648139,0.0021593301515967387,0.0004255973092327729,0.0017337328423639659
804.6152349855054,0.01841387820406785,0.01740553505685484,0.00100834314721301
859.4591555329798,0.00996489742485447,0.0020609823920759557,0.007903915032778513
871.4833084148872,0.0045645490836936755,0.0005003454778241473,0.004064203605869528
873.769714594589,0.004480794117068397,7.96617459825215e-05,0.004401132371085876
877.7521642610768,0.02348959189621919,0.0003284878510270277,0.02316110404519216
933.3485128366475,0.00890322833084612,1.054825834033956e-06,0.008902173505012087
939.3218333597918,0.011686128839709467,0.0011756748881137807,0.010510453951595687
954.5054445982075,0.006957087801371044,0.0002076966765042872,0.006749391124866757
955.955301699917,0.005780162415422561,2.2635502499426932e-05,0.0057575269129231344
981.2252200000348,0.007634486583397216,0.001229749423545606,0.00640473715985161
1011.775518130548,0.000442430826076275,3.244041191595797e-06,0.0004391867848846792
1012.3800508532679,0.0007667309350372496,7.290144916230636e-05,0.0006938294858749432
1016.529994693553,0.009734039910441578,0.0004806916603828469,0.00925334825005873
1018.6438275766847,0.005728118513982143,4.3210927186891825e-06,0.005723797421263454
1026.316297149919,0.08218250595024461,0.06394432267991731,0.01823818327032729
1027.654157558966,0.07635919380205092,0.07399598014357282,0.002363213658478098
1027.807348266063,0.007308540939431374,0.006337007257773029,0.0009715336816583452
1029.164311303775,0.026317363828619315,0.023021605974495773,0.0032957578541235417
1045.4774731248717,0.0378739696042316,0.026164636646767048,0.011709332957464558
1060.5534548968756,0.022397996836068645,0.0180500568564237,0.0043479399796449445
1065.1922015798166,0.14102410765164994,0.11525689585041766,0.025767211801232266
1067.9664304168298,0.03475775730202163,0.018201923401505078,0.01655583390051655
1072.7359565366507,0.15224500928138823,0.14938786527199055,0.002857144009397689
1080.4539584531274,0.012875587547862217,0.00014837611525706822,0.012727211432605148
1093.7938278481897,0.022519540518144934,0.010683858864064788,0.011835681654080148
1116.370226034583,0.005196768159829889,0.0006689463834376342,0.004527821776392255
1119.6087761934255,0.007298141285411662,0.0002888741076619302,0.007009267177749732
1122.6473781339357,0.004021335450885411,0.0011851839145057724,0.0028361515363796385
1131.9300765216256,0.03783058742121627,0.025821214865518263,0.012009372555698008
1157.6661255486072,0.03590547146846117,0.01100254506898045,0.024902926399480715
1171.285070546313,0.08823188469485088,0.041957920062494,0.04627396463235689
1175.6035879925666,0.029026889785035197,0.004234481716706948,0.024792408068328248
1176.3914094449226,0.012918143851712494,0.0017776160437615197,0.011140527807950974
1217.7183069295647,0.030213595807978635,0.0005667372124202713,0.029646858595558365
1220.7061301577735,0.025003640879731975,0.0035620481042700413,0.021441592775461933
1221.8642436288778,0.015405215822452854,0.0031937058390651535,0.0122115099833877
1230.289808175703,0.031733744608995806,1.5713067341434187e-05,0.031718031541654375
1244.7214062057435,0.004122186172037314,0.00023957212288865717,0.003882614049148657
1253.6588579994707,0.07870459886246302,0.07096847105244745,0.007736127810015559
1283.6196376385108,0.009130512256424143,0.006587893358147661,0.0025426188982764827
1298.0291771974735,0.01543176497002361,0.006392034689238214,0.009039730280785396
1311.3027909132918,0.006317563373899052,0.0032255150005052386,0.0030920483733938137
1322.3268855356223,0.016390551796956414,0.009401411114816776,0.006989140682139637
1330.0607683536514,0.01609071296112006,0.0019736401614308323,0.014117072799689226
1339.1381388012803,0.017634509606322946,4.766607356380575e-05,0.01758684353275914
1354.8774609974698,0.03229778992668736,0.019784289582677143,0.012513500344010218
1360.8009787704668,0.012949434231278957,0.00562841170046513,0.007321022530813826
1362.876906447115,0.011600463483930597,0.003992681768265561,0.007607781715665036
1373.502433319811,0.013076786203628668,0.00031503428037161623,0.01276175192325705
1378.399583374642,0.016691506795253816,0.004426645193915059,0.012264861601338755
1404.7630632080688,0.007272990635966436,0.003005639310005887,0.0042673513259605484
1412.5429746223533,0.00023232065215714805,0.00013115936230827984,0.00010116128984886822
1414.6051418885158,0.0011264784543275714,0.0001071129197490288,0.0010193655345785426
1415.6633097614667,0.002613394034338701,0.0008157132054431747,0.0017976808288955263
1420.86962954951,0.0030534651436918045,0.0006739213510562008,0.002379543792635604
1479.3520441615913,0.020502010637404124,0.0013341423436194775,0.019167868293784647
1484.0539316693514,0.013894863898603229,0.000804075159819092,0.013090788738784137
1485.5839190688039,0.021437498772283393,9.282517011985729e-07,0.021436570520582194
1489.0116691651886,0.009044433637196864,6.604900512953778e-05,0.008978384632067326
1491.9578488693703,0.022251480374224985,8.386680624321364e-05,0.022167613567981772
1493.4695587832996,0.02625937895386564,0.004141833149845394,0.022117545804020245
1495.5501877359136,0.06249162919780351,0.00016868200164684273,0.062322947196156664
1498.0502799422286,0.031350428886603346,0.0019174238206173186,0.029433005065986027
1500.0743180419133,0.04244390845850157,0.0001813191985057883,0.042262589259995785
1502.7358468099621,0.017826017559013595,0.006609441656010791,0.011216575903002804
1506.1021851331627,0.019565002397766033,0.009761661478678676,0.009803340919087357
1509.730652757733,0.006057441016652313,0.001604891269641535,0.004452549747010778
1518.7173214839386,0.004075411386125796,4.8828526072133095e-05,0.004026582860053664
1522.3311407461647,0.007623296461516789,0.002481821181042311,0.005141475280474478
1547.2204993925013,0.0006855467925840836,0.00019112062232267286,0.0004944261702614108
1549.7472939515299,0.007835107690859055,0.004039160214070032,0.0037959474767890232
1657.6142229103684,0.04466012756875048,0.00037416028229733135,0.04428596728645315
1657.7595994354847,0.03578070376937181,0.0005799231735534081,0.0352007805958184
1682.5514692385639,0.08461498553532538,0.0008363129407483832,0.083778672594577
1682.9193223363566,0.13388957173994676,0.02606539214093758,0.10782417959900917
3039.06113207428,0.4177300807162665,0.32896905755446215,0.08876102316180434
3053.7820281777913,0.3800398174758449,0.23846683139698813,0.14157298607885682
3057.6933763478905,0.11681645630545923,0.10329738790105078,0.013519068404408453
3061.0671081722044,0.10447716487651033,0.02860625473482951,0.07587091014168082
3063.7034816007463,0.1268256103106205,0.1186638087141316,0.008161801596488907
3063.7906090001748,0.15716103781400065,0.10052973261695905,0.05663130519704161
3065.4603110009903,1.7463735638866154,1.6616058868032604,0.08476767708335493
3068.7368583649954,1.9000286210970714,1.8143153685647748,0.08571325253229661
3077.789858822834,0.2831863373690104,0.004059743719969528,0.27912659364904086
3083.2594810952487,0.27852400418878187,0.016868293175460097,0.26165571101332175
3104.2743813238,0.11798389732749447,0.041079650681777394,0.07690424664571707
3120.4706638603097,0.20793895713238508,0.017499300125267455,0.19043965700711762
3123.3961696722554,0.41443602821354447,0.06254150372975409,0.3518945244837904
3126.239310566198,0.36640588302630317,0.01933262816368479,0.34707325486261836
3128.002608143225,0.1483294574593129,0.008370764311527177,0.13995869314778572
3130.0448020005388,0.10679925586246178,0.0023985589459004906,0.10440069691656129
3136.2074099842284,0.118846687387008,0.02151308862001776,0.09733359876699024
3139.376270653031,0.13528168230354728,0.0008355717048201497,0.13444611059872713
3141.326890015601,0.31233158832409075,0.017423233081856917,0.29490835524223385
3142.928306656705,0.03539657045294707,0.00538014811292102,0.030016422340026053
3187.96243407534,0.1397058193645798,0.006268733843091939,0.13343708552148786
3189.8526635137696,0.21428134039151225,0.024657726330463727,0.18962361406104852
3195.7010134271236,0.4807776667412466,0.024252458556343538,0.45652520818490305
3198.7240667510955,0.4405455106587296,3.1391795387615636e-06,0.44054237147919084
3206.063817037772,0.2593862312423194,0.008115848115181956,0.25127038312713745
3212.754416652696,0.3962260125696518,0.1631542246257574,0.23307178794389438
3216.60354885873,1.0431813457419874,0.8020643641972434,0.24111698154474398
3221.8596988003005,0.0800588039375898,0.06452263833239288,0.01553616560519691
3225.5981363397696,1.099310263304383,0.890064859786974,0.209245403517409
3231.4696947662605,0.6602597024411073,0.5088023521486782,0.15145735029242915
