frequency_cm1,total_intensity,isotropic_intensity,anisotropic_intensity
1.779011896346021,0.0,0.0,0.0
1.5860169661215833,0.0,0.0,0.0
2.0212105932379505e-05,0.0,0.0,0.0
1.0995023258988942e-05,0.0,0.0,0.0
2.397897324413672e-05,0.0,0.0,0.0
1.8725488331707236,0.0,0.0,0.0
20.58415038924851,0.00661440303226762,9.755776788910742e-06,0.0066046472554787084
24.996797147765584,0.032647666740683805,2.1945582959950428e-05,0.03262572115772385
32.00689015373821,0.006114846287478347,5.370679908116971e-05,0.006061139488397177
40.822318277517184,0.004119490918707609,1.8953960474925765e-05,0.004100536958232683
53.04305396972413,0.009652077873756416,4.897405953288153e-06,0.009647180467803128
75.91327288406866,0.0157711558362143,0.00010024802678835507,0.015670907809425948
88.06932021162592,0.0023219558090201084,6.636514746922214e-06,0.0023153192942731863
106.2007040549251,0.006647975478517233,0.0006319200279739046,0.0060160554505433285
117.35340784656817,0.003398356694620461,4.993045074590178e-05,0.0033484262438745593
160.07296670726276,0.0015069298999990243,0.00010342199524738773,0.0014035079047516365
172.27408808049367,0.005430802225351092,0.0016448791331408236,0.003785923092210268
203.36808143746265,0.01596740049023221,0.008687136761667746,0.007280263728564461
219.62325560871295,0.0013446746846509532,0.00035775518045957715,0.000986919504191376
233.2955159691867,0.0033304180621367805,3.125132973699802e-07,0.0033301055488394104
249.38669551746725,0.006107582087149772,0.0033932289040273463,0.002714353183122426
286.2363390883956,0.0007666968682621403,5.0340221105609234e-05,0.0007163566471565311
300.7710701857373,0.0063771861893247295,0.003974984552145764,0.002402201637178965
315.8151764866095,0.009970629622845761,0.007179255662714752,0.002791373960131009
338.22890140499413,0.0030509308337548693,0.0019262375775425883,0.001124693256212281
355.21915081555136,0.004955003596564253,0.0026348020298999834,0.00232020156666427
397.9422782502241,0.0008925204744230515,5.37934832731979e-05,0.0008387269911498535
416.61701321004574,6.443303467732912e-05,5.804783524061257e-06,5.862825115326786e-05
417.3055260531089,0.00015888870304250826,8.0160109641559e-05,7.872859340094926e-05
478.387113431331,0.004165321589316606,0.0019194360620626491,0.002245885527253957
532.3410466686952,0.00237605747557181,1.6433417422516623e-05,0.0023596240581492934
545.781121417209,0.002976074028608638,0.0018861995136247743,0.0010898745149838637
574.7445345518552,0.004330892094827768,0.0010323703117969564,0.003298521783030812
624.0532401587587,0.009221422175752274,0.0018268079087593245,0.007394614266992949
634.6630643243013,0.01853171047035606,0.0006660525685713518,0.01786565790178471
635.4404660849619,0.012365394027915713,0.0007066238740577982,0.011658770153857915
642.5244288746652,0.009403418055499964,0.00021335865128323413,0.00919005940421673
722.5574712611965,0.0009257393318035693,0.0007839743444843906,0.0001417649873191787
724.0444974885356,0.00011496155596548742,1.1375779042032299e-05,0.00010358577692345513
755.247461928119,0.02687844481200912,0.024103479152415692,0.002774965659593431
774.096017059482,0.002906182175732351,0.00018947277279332292,0.0027167094029390284
776.2142193358732,0.00575523770148298,0.003798337354260651,0.001956900347222329
788.3700475802576,0.002140479179605949,0.0010427101215601878,0.001097769058045761
798.1907778585329,0.005907129209796677,0.0027951242780952577,0.003112004931701419
814.7461779566721,0.0033802073498593876,0.0010893163939495465,0.002290890955909841
851.7612188105215,0.10925610241489178,0.10529204190763698,0.003964060507254792
872.9515214958318,0.0031564348930865423,2.7250161245737098e-05,0.003129184731840805
873.2008526514217,0.0027952938168581526,0.0003704601069450305,0.002424833709913122
885.6355777766568,0.0164309997190749,0.00199082183041349,0.014440177888661409
905.5331050222662,0.016088174556158283,0.006738757991602454,0.009349416564555828
943.2104886808893,0.007402114867241078,0.0024826761092438766,0.004919438757997201
945.906315609092,0.0013149550236143692,1.1354289424059629e-05,0.0013036007341903095
987.4624925736965,0.0103999506493722,0.002591167883494792,0.007808782765877407
1007.90925969703,0.0002730756649663158,0.00011017937844100602,0.00016289628652530977
1009.1840043219515,0.004711427987840925,0.0005684236117455301,0.004143004376095395
1009.375726426506,0.00036450429644744773,6.404830040944972e-05,0.000300455996037998
1022.3421304790344,0.03367160992396628,0.017800735744108075,0.0158708741798582
1026.247911661337,0.14693861517036583,0.11991649001023615,0.02702212516012968
1026.3335934866348,0.07831465637674075,0.06695694796594064,0.011357708410800114
1027.0960599663715,0.005781051256984181,0.0025883866315590943,0.0031926646254250863
1027.7399115720218,0.07786442588376086,0.06604415712215445,0.01182026876160641
1061.24649866767,0.03879351336844339,0.0339945733890117,0.004798939979431689
1064.565987696781,0.07593013825824027,0.05877356536831994,0.017156572889920334
1066.035261552863,0.18159069054732208,0.16662502110623537,0.014965669441086708
1077.559362045873,0.018599979550340935,0.003652313458110623,0.014947666092230312
1082.2476078159714,0.05378879602197796,0.024977799881043025,0.028810996140934936
1092.4284018139326,0.06465135539292496,0.04324744611972325,0.02140390927320171
1105.0739673181981,0.011772665190054212,0.002210810474148436,0.009561854715905775
1115.1745792412216,0.0126051878003915,0.010842052645922364,0.001763135154469137
1132.9151266502943,0.023090471697804794,0.004462432145473337,0.018628039552331457
1146.8348819027387,0.024457036372668568,0.007851601967276647,0.01660543440539192
1166.2422943576616,0.008767784503462012,0.0020632009107597335,0.006704583592702279
1173.6015365553485,0.018656375673418085,0.0009785693044374224,0.017677806368980663
1176.2488972085246,0.014349805143111257,0.0004941037942776239,0.013855701348833634
1201.6211976853435,0.028558453414745336,0.0208321447514994,0.007726308663245935
1206.6582427819073,0.020748286174873478,0.0009680751014126306,0.019780211073460847
1211.9918505388348,0.0421013420457984,0.009566226470666213,0.03253511557513219
1235.3671198708587,0.01899624782110188,0.0013281937763007358,0.01766805404480114
1243.2221795591636,0.11263765618449065,0.08978708083050288,0.022850575353987775
1255.33093170837,0.017797082957192224,0.009756325761662122,0.008040757195530102
1289.0288921632425,0.03050049703183913,0.025955579612544168,0.004544917419294963
1291.6522231013857,0.007588507275910001,0.00011687616033693374,0.007471631115573067
1302.1984681582362,0.013575737769164351,0.005935657629646681,0.0076400801395176705
1318.4484235694438,0.03229762546654205,0.019371961349097792,0.012925664117444263
1322.4190281954936,0.04050861531876864,0.00980147002742246,0.03070714529134618
1336.3277505437147,0.021918557851146735,0.012386706213047308,0.009531851638099425
1349.1250603624676,0.005018510159047093,9.30697876728895e-07,0.0050175794611703635
1351.2450247218696,0.039626009637287136,0.007139380080224862,0.032486629557062274
1356.4797211872983,0.013858162732533168,0.0006619200734818123,0.013196242659051356
1365.513807626016,0.006552055865361307,0.00027775923253421886,0.006274296632827088
1381.0050422096842,0.0075122318875797765,0.0007331995066315717,0.006779032380948204
1381.944914417675,0.012976657711967371,0.0002400252292840128,0.012736632482683358
1404.5154898120813,0.00451583976914789,0.00011662553050180244,0.0043992142386460875
1410.0990112255874,0.006393556787444785,0.002158213522475657,0.004235343264969127
1415.6246015685374,0.003152719441261916,5.702957813800993e-06,0.0031470164834481148
1422.0502182325906,0.008131703047740059,0.005863564159414854,0.0022681388883252045
1480.408898881186,0.05342902227342167,0.011690209566651791,0.04173881270676987
1488.9723460459754,0.007935678193765533,0.0030453260097660635,0.00489035218399947
1492.5236137406166,0.04391681596539944,0.0023459561674860014,0.04157085979791344
1493.2898229508137,0.044588074457842186,0.0005778699346070522,0.04401020452323513
1494.9935698575648,0.03368667745315131,0.0010256791405726224,0.03266099831257869
1497.6321668382247,0.01830570479983081,0.0013809461383763738,0.016924758661454438
1499.4916928979346,0.00553861099707166,2.8262243079543434e-05,0.005510348753992116
1503.588546012488,0.007905861220302762,0.0020641262857136644,0.005841734934589097
1507.3260142375777,0.0036452856574418417,0.0005176489265103873,0.0031276367309314543
1514.7668052274257,0.016415669766744148,0.0018141144198041764,0.014601555346939972
1544.9334406003466,0.0014109783340055624,3.8329543412758156e-05,0.0013726487905928043
1546.43571122166,0.0002446508629559512,0.00010523540091335653,0.00013941546204259466
1660.576926370915,0.0448271268651528,4.830378077009921e-05,0.0447788230843827
1661.6867133198853,0.03597561676843542,7.247538474831682e-07,0.035974892014587936
1683.1519541281077,0.11606815192285844,0.0173559163701233,0.09871223555273514
1683.838618956156,0.2350420067803894,0.03604226123933827,0.19899974554105113
3035.0124225817526,0.4609975266825066,0.3940477754122937,0.06694975127021291
3035.6870223070077,0.12795361467622657,0.0012585887692122028,0.12669502590701437
3040.062486403553,0.16060005738734828,0.12837907648490057,0.032220980902447724
3045.95506978389,0.4117051507791704,0.36131070398722825,0.05039444679194215
3051.5534492413544,0.06335853784259923,2.934147102393223e-06,0.06335560369549684
3060.5003492626524,0.5699035715195703,0.500537682251348,0.06936588926822229
3061.1073616379854,0.7350574029868856,0.68708208713993,0.047975315846955545
3061.888553118874,1.4283641552800626,1.324732624845321,0.10363153043474159
3079.7150803452664,0.13963106444449336,0.0006357103789478289,0.13899535406554553
3088.965722521971,0.4756917098787238,0.23835480602743805,0.23733690385128575
3091.8996009321613,0.3426753471535416,0.0008732803006625051,0.34180206685287906
3108.5447537261584,0.013010128273728315,0.003234220284980651,0.009775907988747664
3119.92983211148,0.27309468660868697,0.02314323133864703,0.24995145527003992
3124.5513287140784,0.20777122799625353,0.01465831964091852,0.193112908355335
3130.6708119997393,0.21038526888353265,0.04159050783994988,0.16879476104358276
3144.237613319291,0.20530512953787095,0.013596916536379258,0.19170821300149168
3178.389796405081,0.19289748177055135,0.06430887380819136,0.12858860796236
3180.949011035007,0.1662280003217611,0.057152387748612865,0.10907561257314825
3184.1786246663555,0.25308537897600114,0.006615013165527134,0.246470365810474
3192.205548208767,0.3379057823636901,0.030097072975132304,0.3078087093885578
3197.6118116041,0.5020540197481833,0.13718662830171127,0.36486739144647207
3202.3907215953395,0.5207813637983294,0.052225678701518286,0.4685556850968111
3206.372792123444,0.23876903009043324,0.0004876798073252648,0.23828135028310798
3212.0191176024364,0.08527069624591208,0.023673957224220325,0.06159673902169176
3219.0647153535638,1.4709765523210556,1.1621977515243351,0.30877880079672043
3220.31816684133,1.5826590991787488,1.2677011063392016,0.31495799283954723
