frequency_cm1,total_intensity,isotropic_intensity,anisotropic_intensity
3.428982564461773e-05,0.0,0.0,0.0
2.236423271456348e-05,0.0,0.0,0.0
3.3717420565816353e-05,0.0,0.0,0.0
0.3761887183942543,0.0,0.0,0.0
0.9945132183179661,0.0,0.0,0.0
2.0438797556672386,0.0,0.0,0.0
27.797029789540378,0.002197153543658823,7.449566447083983e-07,0.002196408587014115
40.03892695052982,0.000602340704630265,1.461784451989496e-05,0.00058772286011037
57.17432610633768,0.0012135408185780835,1.6082645927266198e-06,0.001211932553985357
75.86047361751224,0.0016673146721127197,1.5142940761251193e-05,0.0016521717313514686
94.81373143252019,0.004403476019054013,2.5720303893121782e-05,0.004377755715160891
136.63733162268056,0.005192066034751287,5.5401401861801804e-05,0.005136664632889486
141.33877356578833,0.01070958441046803,0.00025417672047858787,0.010455407689989442
166.33988034009028,0.002461850434755041,0.0005269711322946527,0.0019348793024603884
176.8566702847263,0.0024052718135433274,0.00021788980944543727,0.0021873820040978903
181.63202129114296,0.004167103021611282,0.0002308010998013052,0.003936301921809977
201.03294586689313,0.00019384840766712867,8.661728670477168e-06,0.0001851866789966515
221.4669229444938,0.0013270734440564034,0.00027994310921938576,0.0010471303348370176
228.63074747741967,0.017615194020752886,0.007809046838483378,0.00980614718226951
233.22207381235847,0.0014866627863397766,5.040374600213613e-06,0.001481622411739563
238.67081848089234,0.004147089455406991,0.003110957320213423,0.0010361321351935679
249.8026550826422,0.002764806703566604,0.0013337535751175873,0.0014310531284490169
257.48048196156236,0.016997256931280607,0.014542806457213484,0.0024544504740671223
284.62691094061506,0.0013985852507526872,0.00034623543344094543,0.0010523498173117419
304.7642440741588,0.0018319409918084039,0.00038899960184309376,0.0014429413899653101
331.15233692108416,0.0028097490219893898,0.00014811227716548186,0.002661636744823908
355.58498955829214,0.007703522572092416,0.006562844094127527,0.0011406784779648886
361.7314322960626,0.005316677537805278,0.0022258626261723465,0.0030908149116329322
378.49391996764535,0.0040107841235870745,0.0018993730632573642,0.0021114110603297105
397.1558450435018,0.003949682557118802,0.002576164509451663,0.0013735180476671391
458.0532995361822,0.005718691174250752,0.0035039956679248172,0.002214695506325935
475.74041292622195,0.015462931487327747,0.010575426296759269,0.004887505190568478
512.3191402441959,0.08010042271487094,0.07913226928915525,0.0009681534257157046
564.6255764602523,0.013571901312691413,0.0033028271325083913,0.010269074180183023
607.2079358927467,0.019381814866909583,0.016383172991134533,0.002998641875775048
649.6242230484771,0.001671760921741131,5.453012245264885e-05,0.001617230799288482
656.8242599033329,0.006111309783780136,0.004675269240289303,0.0014360405434908326
669.682747860071,0.0019373632467777435,0.00040373441855507986,0.0015336288282226636
778.5119705962345,0.0002686257094046199,1.8648870530299755e-08,0.0002686070605340896
834.9469025354298,0.00312535025647107,0.00011463596607687775,0.003010714290394192
851.9307843781404,0.019556066720341204,0.007203725170238394,0.01235234155010281
908.0958402763133,0.09823095486108047,0.07519794235413767,0.0230330125069428
914.7152869510448,0.003868584376214984,0.002372871430679724,0.00149571294553526
924.4942379066131,0.0031224108991347393,0.0001527487121097902,0.002969662187024949
932.1747490878538,0.0034867252319622693,0.00022183191095990324,0.003264893321002366
933.6726948660994,0.0008520055473144174,9.507935307175101e-05,0.0007569261942426664
935.8871248873551,0.002266429838308112,0.0001789840960829999,0.0020874457422251124
958.5287249194848,0.0032046563157130227,0.0001634224632501186,0.003041233852462904
972.9602581723103,0.007027948251880451,0.003501490511574139,0.003526457740306312
973.764458358292,0.015157765502300602,0.001647445728477437,0.013510319773823165
975.068823170903,0.014902388562903367,2.947510334687485e-05,0.014872913459556492
979.6271679446749,0.0125259717664602,0.00012937443683913442,0.012396597329621065
1051.5154218711143,0.061154177082411734,0.05143884256704014,0.009715334515371593
1088.3411305563386,0.04886842242959716,0.04135411193025239,0.007514310499344772
1105.04689123096,0.0029608924340005166,0.0006243411257460382,0.0023365513082544784
1111.8542304454193,0.005905502356351953,0.0032006213138854184,0.002704881042466535
1139.9737049822945,0.023360017945270192,3.5642076340475317e-06,0.023356453737636146
1143.012891806622,0.030983217044122314,0.0026062408903624744,0.02837697615375984
1145.341074070128,0.025987003302919205,0.0001562263449936484,0.025830776957925558
1180.2940474969523,0.015022468359871657,0.004559253533345892,0.010463214826525765
1184.8591525143956,0.005128270630630911,0.00011980929145502758,0.005008461339175883
1204.5079781652662,0.009341124022819983,1.4316138024218392e-05,0.009326807884795764
1227.4384507283155,0.01496898327313009,0.0034993476281020702,0.01146963564502802
1246.749876909746,0.029737359046630718,0.015699248736629676,0.014038110310001043
1286.906025953853,0.009103080767718843,0.004026154546879665,0.005076926220839178
1325.1472469854873,0.13592281605461612,0.0969918764572182,0.038930939597397914
1339.5174679374506,0.027780243300964447,0.008954780324313471,0.018825462976650977
1348.8062687991674,0.027473468053890532,0.00025908718618435165,0.02721438086770618
1352.6196050362007,0.02328541652217834,4.555556568965841e-06,0.023280860965609374
1358.0519678677372,0.011517253802757602,0.005307020615198658,0.006210233187558945
1366.2405124201387,0.03795527383023513,0.02587611560834719,0.012079158221887935
1394.6702640201772,0.0025151232662379095,0.00014322798624461685,0.0023718952799932926
1397.9573817262235,0.0003308266007757028,1.021770217559318e-05,0.0003206088986001096
1398.8461173554992,0.00018361697722555327,9.59916010751914e-06,0.00017401781711803412
1404.7933095034991,0.013941956746084566,0.0014233994366742264,0.012518557309410339
1415.2206566080818,0.010328629380285604,0.00029576566966250245,0.010032863710623102
1415.9083286246434,0.007475257950922634,3.947865117856598e-05,0.007435779299744068
1417.2343740660533,0.0051623712415474615,0.001922045825308529,0.0032403254162389327
1474.2170844941418,0.0023444843600037434,1.4382756888412489e-05,0.002330101603115331
1478.922023835875,0.040063868844723884,3.1900155708398814e-05,0.040031968689015485
1480.1038902494297,0.03877383779306193,1.0019666125704204e-07,0.03877373759640067
1482.5532271538966,0.02713838533839196,1.6807047450370812e-05,0.02712157829094159
1485.8404897466016,0.01869860918266954,6.359257371219616e-05,0.018635016608957344
1486.5263027547937,0.01851003671045991,3.2330605861624864e-05,0.018477706104598285
1492.7946805936947,0.027265813479449924,0.00024145943148794406,0.02702435404796198
1494.7901177062395,0.0008666238799204814,1.8181549047984955e-05,0.0008484423308724964
1496.5928645846184,0.00806285913826233,0.00019532133360928127,0.00786753780465305
1498.1449426879465,0.03635673208823412,0.0019570954156656493,0.03439963667256847
1503.041226092527,0.029389176498119136,0.0016227062430917408,0.027766470255027396
1506.8007814592154,0.014816808709973416,0.008639465024928074,0.006177343685045342
1509.087245007329,0.02311506865918752,0.006244541670122312,0.01687052698906521
1514.417371522682,0.03899826825458681,0.010737504955430341,0.02826076329915647
1649.8489597106375,0.03846444960841022,0.00048459586513564546,0.037979853743274575
1669.970528468298,0.1481754770655478,0.009902708326651787,0.138272768738896
3052.694411818344,0.3287123121004287,0.27806977803596594,0.05064253406446276
3053.4402257728975,0.1318082138866539,0.10136225667620086,0.03044595721045304
3055.265404564779,1.2648067260889269,1.1726273952085176,0.09217933088040942
3055.836850008591,0.16927975709983176,0.015995161674541587,0.15328459542529016
3057.4642520533403,0.6028940215692079,0.44730932911141064,0.15558469245779724
3058.4778760745317,1.2459542674749486,1.2072421975861127,0.0387120698888358
3061.3436787139735,0.04484169603141838,8.510362158553638e-05,0.044756592409832846
3065.3011439357033,2.065921016460684,1.9417524991022843,0.1241685173583996
3090.667827953046,0.24228323195054327,0.05365870372944808,0.18862452822109518
3116.56471911599,0.08179209823635533,0.008207138542900347,0.07358495969345498
3116.6012525604597,0.044540640811486586,0.0005842909835498146,0.04395634982793677
3122.381252545404,0.7109237878858319,0.19036020785679084,0.520563580029041
3122.630388076732,0.08480224293335466,6.847849566094163e-06,0.08479539508378857
3124.9581958754197,0.5609250688203357,0.013341818798699601,0.5475832500216361
3126.291445406407,0.6171610496283586,0.22054699177112635,0.39661405785723225
3130.3297599108787,0.11079409796441338,0.0008069999712758506,0.10998709799313752
3130.6554496280946,0.23073608725733755,0.007373293485300952,0.2233627937720366
3132.6864725105665,0.40661312889977086,0.0013427357970754476,0.4052703931026954
3140.8307036897086,0.1892418450022517,0.004071365408173926,0.18517047959407776
3157.5501060075067,0.038768266278351025,2.2422624663056327e-05,0.03874584365368797
3160.4262803406077,0.18481660087338106,0.003445825099902507,0.18137077577347854
3183.2155494935037,0.2807435100797818,0.18076982014033136,0.09997368993945044
3210.398898923803,0.3009976045863356,0.2084626651233776,0.092534939462958
