frequency_cm1,total_intensity,isotropic_intensity,anisotropic_intensity
1.8538771442624724e-05,0.0,0.0,0.0
6.294587330802634e-06,0.0,0.0,0.0
2.0364694011677235e-05,0.0,0.0,0.0
0.1541392134021029,0.0,0.0,0.0
0.7951174816696787,0.0,0.0,0.0
2.144623195024134,0.0,0.0,0.0
13.287061842605137,0.0018670549976477011,4.986903804019991e-05,0.0018171859596075013
18.275958323814532,0.00019710284736725465,2.3613298726963118e-05,0.00017348954864029154
34.622516489217425,0.0024641747447303798,4.829172795003696e-06,0.002459345571935376
50.57892768590729,0.001735592510087674,2.1192027802104667e-05,0.0017144004822855692
60.715274497186535,0.0010325845177832189,8.450203128166793e-08,0.0010325000157519373
69.86422290283161,0.0023278843127605016,5.277132216475493e-06,0.0023226071805440263
78.00514942393934,0.0006137865431038005,4.316791582392271e-05,0.0005706186272798777
96.87212267375718,0.0002863452376046443,9.335767720148173e-05,0.0001929875604031626
123.3278646564974,0.0010981345347983104,0.00026280644111952543,0.0008353280936787849
140.42285738986243,0.0019318158952682212,0.0016894055489062529,0.00024241034636196838
167.34548023587587,0.0006480315871095786,3.8759470134411496e-05,0.0006092721169751671
185.69515916505992,0.001081639760387332,0.0006727730657092694,0.00040886669467806266
221.85625092871308,0.002063971763691455,0.0012602353743736592,0.0008037363893177961
245.64842372127833,0.0013215772090475679,0.0011898274821718663,0.00013174972687570152
250.36452589458133,0.009747172520140398,0.008771610793259393,0.0009755617268810046
263.9465809483813,0.00047079070536195473,0.00014292210584606834,0.0003278685995158864
294.4587049588617,0.00035705662414509863,9.788703352376005e-05,0.0002591695906213386
317.77928611346937,0.0035832335380236065,0.002368006668785784,0.0012152268692378226
327.61609746724383,0.0008913338309495271,0.0001216643997416741,0.000769669431207853
416.81628712605954,0.004727971660522913,0.000859558515000261,0.0038684131455226523
453.23863039174233,0.005372038184999846,0.005095098989018858,0.00027693919598098765
460.0134345910993,0.002827915434404183,0.0012775925917644692,0.001550322842639714
472.30663923042573,0.0038396314224677843,1.521223803029845e-09,0.003839629901243981
485.4277924575834,0.009352586948896343,0.005855100778137478,0.0034974861707588656
658.0138001287215,0.006247542774691071,2.695737516286312e-05,0.006220585399528208
711.56706595727,0.002008665686264827,0.0006905265921359949,0.0013181390941288318
732.9297711769738,0.0025788445684554085,8.100151238331092e-05,0.0024978430560720975
739.4443542371818,0.001859836937381525,0.00016593972033036568,0.0016938972170511594
766.5145948325411,0.005162332447339746,0.001581936376612527,0.0035803960707272192
796.3847379266207,0.009463531789168245,0.0016613694397448163,0.007802162349423429
835.0672468342614,0.003928202260803208,0.002098295151153084,0.0018299071096501234
851.6838788446672,0.09549734888400595,0.08529565034180928,0.010201698542196672
862.9158312249835,0.02566103651232136,0.0035524744621906732,0.022108562050130686
888.2970118760835,0.003850085324145415,0.0015185696928828585,0.0023315156312625567
890.5623805981812,0.02931929063717728,0.015637030096134614,0.013682260541042669
928.7201917683481,0.05421374133729587,0.04282275190393839,0.011390989433357483
949.5944619667022,0.003511909434123156,4.2108484345616716e-07,0.0035114883492797
958.6022355151728,0.0056209912915109305,1.1648779973412196e-05,0.005609342511537519
984.5501153884412,0.019174009004990437,0.0149419457315917,0.004232063273398739
1003.0362884474312,0.011933170409803807,0.007086846113966358,0.004846324295837449
1019.8407837018941,0.01516696445083817,0.012534207372879469,0.002632757077958701
1052.1713092421612,0.021707315208943992,0.011662465299818993,0.010044849909124997
1063.387338687301,0.01448693979061844,0.0063186218236135515,0.008168317967004889
1073.5139635462942,0.008982142745173213,6.841721027845867e-08,0.008982074327962934
1094.1953848260562,0.029630967473965097,0.0006762232238044741,0.028954744250160622
1100.7620800396714,0.003792800851765781,0.0006957764731533358,0.003097024378612445
1104.829451251789,0.00960745130025878,0.0012452434930811896,0.008362207807177589
1108.3372326310719,0.03794837151163041,0.0002852648017642048,0.03766310670986621
1142.8934403951023,0.011777628480374433,0.004374801891891623,0.007402826588482809
1151.9025198149668,0.013131063140742912,0.0006337813654847617,0.01249728177525815
1160.620402402523,0.016090987650418685,0.0007815074484485559,0.015309480201970128
1188.192268218488,0.014923064985469126,8.439189519266304e-05,0.014838673090276464
1220.9292910801053,0.009148903153702845,0.0007333424094133793,0.008415560744289466
1239.7146950168408,0.025105025198566458,0.01888319862218905,0.0062218265763774065
1246.555251961402,0.0016772784390325008,5.799416661043448e-05,0.0016192842724220664
1277.0373998545303,0.006704464926967881,0.0037491097851732593,0.002955355141794622
1294.247773243137,0.0035517332430629526,0.001606944198097579,0.0019447890449653736
1300.1961269706605,0.015010536355198396,0.0008587551972837787,0.014151781157914618
1314.4816281500387,0.019768543684394017,0.00271233851658587,0.017056205167808147
1323.4001798401994,0.027561036289096084,0.0011070987894086582,0.026453937499687427
1330.269935214696,0.013869884122784691,3.5875684808031257e-05,0.01383400843797666
1332.8919370287522,0.007888218523080644,0.00015026894308987765,0.007737949579990766
1336.3076734059118,0.0440936741903912,0.00012644726145400977,0.04396722692893719
1345.6779665340225,0.020606401601181667,5.069040169149278e-05,0.020555711199490175
1378.5394179426264,0.005793450326855061,3.815529577076791e-06,0.005789634797277984
1385.3469214251452,0.002699483529300531,3.1280626188582634e-05,0.0026682029031119482
1387.35134107215,0.011900266623666767,0.0015887517400231801,0.010311514883643588
1398.840646419474,0.0027778292474068293,0.0006647743173745206,0.0021130549300323086
1407.9992886002335,0.00492353447382869,0.0029679969060892797,0.0019555375677394104
1412.0415034327812,0.002074776678876609,0.0007521591188628562,0.0013226175600137527
1412.4209873569419,0.0013049545819124593,0.00024259392875776762,0.0010623606531546916
1416.148101771241,0.0033203702918799646,1.3856530015719878e-05,0.003306513761864245
1418.5760970427746,0.007683853753878882,0.0003395524780013142,0.007344301275877568
1449.2078031404355,0.006700532756948379,2.5780467627230364e-06,0.006697954710185657
1459.393788646622,0.037186415856434035,2.764842975364508e-07,0.0371861393721365
1477.2257147587673,0.024834693971199764,0.0002416677070745115,0.024593026264125253
1479.9084293283368,0.07393187884557406,0.001532658233909782,0.07239922061166428
1482.8000567491024,0.006382374393271732,7.393090968807129e-06,0.006374981302302925
1485.732794990519,0.05456410500568567,0.0004102682205896135,0.054153836785096054
1486.0220912156485,0.04982912243177763,0.0012421682999853277,0.0485869541317923
1490.5523068355872,0.014430562195368661,0.001898274262532039,0.012532287932836622
1493.2182182045772,0.005902310097442708,0.00011560347793702853,0.005786706619505679
1494.2432247105535,0.020115625629469232,0.00011953672166784567,0.019996088907801385
1496.7605997995888,0.010538474581556115,4.354039608818216e-06,0.010534120541947297
1500.2885308460186,0.004306636485773963,7.8205472777866e-07,0.0043058544310461844
1503.660253076671,0.006140331446695953,2.897861805668917e-05,0.006111352828639264
1504.551899698558,0.006743325750860414,2.7756026776753134e-05,0.006715569724083661
1811.8628280977966,0.02967051386527137,0.01351169562036462,0.016158818244906753
3029.2732297844295,0.19048679643853983,0.12871078756224585,0.06177600887629396
3029.8834442307902,0.49088539786770424,0.39793204404515753,0.09295335382254673
3035.4550463436317,1.0346052684384948,0.891624357463988,0.1429809109745068
3035.979916807292,0.334713094973787,0.31156397410830533,0.023149120865481626
3038.8260171710835,0.4456403225927562,0.39110267008665683,0.0545376525060994
3041.080516508093,0.33757610622795425,0.017390173394426355,0.3201859328335279
3042.373409107497,0.6965078487552318,0.6548391898784748,0.041668658876757
3047.5787181638325,0.14452460586548058,0.0007258128619959806,0.1437987930034846
3052.3242804476813,0.8300772435539234,0.7544003012801492,0.07567694227377422
3053.125169279304,0.7376505817764712,0.6656906615587656,0.07195992021770567
3056.59398109847,1.573753332160119,1.3850461571398465,0.18870717502027254
3059.012997988017,0.5592438209938748,0.1838475572328718,0.37539626376100305
3063.275644493521,0.020248703077007584,0.008249743072156274,0.01199896000485131
3066.5971620187756,0.3431117704299851,0.08905443124467136,0.25405733918531376
3069.3663778050104,0.25228296194129196,0.006261178341419893,0.2460217835998721
3073.6682014168086,0.6060411749148904,0.5739165364084556,0.03212463850643475
3078.1522361082525,0.4541954489960582,0.048762951005893895,0.4054324979901643
3086.3933141679067,0.4375790847252813,0.16746843446620926,0.27011065025907205
3091.861822465173,0.05551102309398152,0.04028935323051445,0.015221669863467067
3093.859324870728,0.042271502144311836,8.929236454517612e-05,0.04218220977976666
3106.8899057371355,0.08030966423262509,0.009619613494026099,0.07069005073859899
3111.338150474234,0.19238810399307527,0.04284327749602541,0.14954482649704987
3115.642737239808,0.1401828602727261,0.00023967514142211605,0.139943185131304
3117.095041855314,0.27316841387617125,0.04352706434154808,0.22964134953462315
3122.629575969752,0.33141890368176696,0.04009471807260077,0.2913241856091662
3126.5971984869116,0.2023431612911888,0.01898711555245821,0.18335604573873057
