frequency_cm1,total_intensity,isotropic_intensity,anisotropic_intensity
1.2513661955904254,0.0,0.0,0.0
1.2052493341790378,0.0,0.0,0.0
3.2011948333491686e-05,0.0,0.0,0.0
3.0343506837939007e-05,0.0,0.0,0.0
2.78064567149005e-05,0.0,0.0,0.0
1.090312626712492,0.0,0.0,0.0
34.41716241392797,0.011221514172512109,0.00011404107867956032,0.011107473093832549
51.02697142927167,0.02354949200755371,9.74408967207659e-05,0.023452051110832945
65.47824948899503,0.026792093017060096,6.130858682744916e-05,0.026730784430232645
75.99849309879858,0.009045493691764233,9.738663294343419e-05,0.0089481070588208
90.97023177362617,0.00424316702074301,0.0003398352259746823,0.0039033317947683274
119.60816373688436,0.009597611594577166,5.802699266952812e-06,0.009591808895310213
179.4436484364381,0.000792053649300823,6.901594976943984e-05,0.0007230376995313832
202.8749070994066,0.002868768433950672,0.0003734657959440041,0.002495302638006668
219.9641346091553,0.011031968345152883,0.001127869941594832,0.009904098403558052
254.83457535059256,0.0017196927809941594,0.0009532574904696894,0.00076643529052447
273.9897656800603,0.009963748769309897,0.009020406329615345,0.0009433424396945512
286.4230222342999,0.004364982558367085,0.0012090532916611606,0.0031559292667059243
289.867443366364,0.015630441719515997,0.013347310184888692,0.0022831315346273054
302.0264373654703,0.0020948666176091755,0.0005483087061291958,0.0015465579114799797
347.625133714221,0.01274036632680254,0.0025157358221929646,0.010224630504609575
364.1137301820536,0.004961274849371048,0.000708781468195353,0.004252493381175696
417.5173808636388,7.807408599210684e-05,1.8341068924171153e-07,7.789067530286513e-05
423.892471529087,6.05727916859631e-05,3.2320919795651444e-05,2.8251871890311656e-05
470.3136268543654,0.007215351092586907,0.0065089466427172595,0.0007064044498696476
522.8861169741112,0.005228933851079141,0.0020642027091935093,0.003164731141885632
545.5142045006611,0.009901191835845136,0.005476538485932328,0.0044246533499128085
600.902799457546,0.006535933008727032,0.004530342438992397,0.0020055905697346356
611.6374491455401,0.0034162498021839674,0.0003588769574323249,0.0030573728447516424
633.6913078814488,0.012683276233836012,2.1226832961663564e-06,0.012681153550539845
635.2627858292531,0.02470811978339406,7.940987388933894e-05,0.02462870990950472
660.8810926896663,0.007087434922361459,0.00014332287152104303,0.006944112050840416
681.9791061248525,0.015929236980746535,0.008840125781915332,0.007089111198831204
722.495412944241,0.0010364196075341354,0.0009549108029073107,8.150880462682473e-05
728.1833042447785,0.0007040695998856007,0.0006354550188418567,6.861458104374393e-05
739.4580926097627,0.06776276079295428,0.0672143202024672,0.0005484405904870752
783.8017284165408,0.004093509411712729,0.00010812255920747787,0.003985386852505252
788.8964500845434,0.002614674874989837,1.3199355379647575e-07,0.0026145428814360406
792.2466328553867,0.00836581205765673,0.005596364079742359,0.002769447977914372
844.5552332005624,0.005852737782740843,0.0007172836997391519,0.005135454083001691
878.5615451972578,0.0028531273738681153,6.507371217540408e-05,0.002788053661692711
883.3377117110658,0.005034534482023458,0.002368384317013568,0.0026661501650098902
892.5552230416799,0.006109560323478253,4.0595309763782414e-05,0.0060689650137144705
895.9721310404551,0.018682563148203303,0.0006249555698278829,0.01805760757837542
931.5424173082401,0.052083259593420084,0.04435000706110782,0.007733252532312263
952.3832591551151,0.01387632175780088,0.006103779913594367,0.007772541844206513
964.2325195218702,0.0021106005102015627,2.8807926899478837e-06,0.002107719717511615
984.468033816258,0.02431714842931612,0.007166856691182359,0.017150291738133764
1002.522405266461,0.008456805005076857,0.0008846528751138467,0.00757215212996301
1015.2309833338188,0.0008442050843471111,0.00031413660817622424,0.0005300684761708869
1017.4519541413263,0.008684748654627445,0.007081603796746,0.0016031448578814446
1026.8609349941694,0.10534891344472723,0.09050418553452949,0.014844727910197744
1028.1802224446612,0.05474150181583947,0.04217623856643142,0.01256526324940805
1029.6060715647384,0.013376807197879915,0.004307041347697128,0.009069765850182786
1032.257194262483,0.048028330957365487,0.04360848182937736,0.004419849127988124
1035.8544764681658,0.09842353905239316,0.08648397141797284,0.011939567634420317
1059.9730373966927,0.17518351681383826,0.15331170239232608,0.021871814421512186
1067.3857332135447,0.036353288278245785,0.016820893154428935,0.019532395123816847
1069.8303796712387,0.10997064162431441,0.10504134888775632,0.004929292736558089
1104.984591659769,0.019756344322017443,0.0008905026641640917,0.01886584165785335
1111.6308200015549,0.01491739371068719,0.005973847432649358,0.008943546278037832
1120.5018894133786,0.006038819986658501,0.0035937596723370265,0.002445060314321475
1130.8496709015324,0.013401131245527985,0.011255278127154652,0.0021458531183733334
1157.7965388767707,0.013540427925098191,0.0023139060981219647,0.011226521826976227
1174.9030985210366,0.01223144993148963,2.007266522877628e-05,0.012211377266260854
1177.5331014981107,0.017547613650729665,0.0055214847244827595,0.012026128926246906
1199.7012692971548,0.06456364722064212,0.054475118385613086,0.010088528835029024
1207.6136131927665,0.04251421215079948,0.020363254132729464,0.02215095801807002
1212.2084589443589,0.034517220922134204,0.0037697601206047966,0.03074746080152941
1216.8115895650585,0.0332334813246063,0.012191386314355486,0.021042095010250814
1221.4329993655037,0.020170470028278577,0.009757827905129727,0.010412642123148848
1265.98406612428,0.013340178933195378,0.00016829561176371372,0.013171883321431665
1281.4426036602958,0.05089028219851824,0.04450513050459026,0.006385151693927979
1310.9195334689402,0.037682653267063666,0.034856012652496375,0.002826640614567293
1315.4374786376393,0.02237610797515541,0.01962121600190216,0.0027548919732532525
1317.1927918374254,0.005005774676039005,0.003294426211824595,0.001711348464214411
1331.9142017893275,0.005077909480870743,0.002306584834955372,0.002771324645915371
1343.8916378472697,0.012267566960077497,0.006681668171864937,0.005585898788212561
1348.2746562226691,0.02044393698640789,0.005210256699525851,0.015233680286882037
1358.0488069841028,0.004921544216092431,0.0018973404435452558,0.0030242037725471756
1361.9293724165948,0.0035002896120267966,0.0018084039351373548,0.001691885676889442
1372.442566770473,0.009105988215579763,0.0016144003752453808,0.007491587840334383
1399.3405627001805,0.005860131551709455,0.0021380969541205086,0.0037220345975889466
1459.4601684330546,0.024013407710266662,7.865333985572686e-06,0.02400554237628109
1486.6834231178264,0.03316838066325206,2.7961207801577827e-05,0.03314041945545049
1490.9186334800995,0.006225872375130834,2.0175448970352533e-05,0.006205696926160481
1494.9957222200255,0.02858395915788119,0.0018154089801975311,0.026768550177683658
1495.4701708566124,0.017632432331211784,1.605874295133075e-05,0.017616373588260452
1515.0016505241188,0.011568636333438838,0.0006832910081156877,0.01088534532532315
1543.6130356819688,0.004604484899124402,0.0037248633393423404,0.0008796215597820622
1545.5582628872403,0.0009277493606693326,0.00030573888491646937,0.0006220104757528632
1658.500758997936,0.043984515647101596,0.0014658087897982549,0.04251870685730334
1663.9629789120847,0.06385104252713275,3.161802732586847e-05,0.06381942449980688
1683.4971463145764,0.120924948891632,4.343122277003174e-06,0.120920605769355
1685.584204394496,0.11231088241221714,0.023864004837734386,0.08844687757448275
3049.444802487599,0.687029212405658,0.5132792790475548,0.17374993335810318
3057.463032457343,0.27038040087176163,0.1462413626314949,0.12413903824026676
3059.8643115319346,0.27489042795025315,0.11339409179863286,0.1614963361516203
3071.8441835514686,0.6275514512689694,0.572277751735818,0.05527369953315142
3106.80621234909,0.26621459614175236,0.03176124873851711,0.23445334740323526
3123.3279475413706,0.8188674402696483,0.5442505934535599,0.2746168468160884
3128.286628741353,0.4077455284407638,0.0056194871367370594,0.40212604130402674
3190.611174185788,0.17542274639844127,0.004017873315114421,0.17140487308332686
3192.720016828265,0.20583131514930683,0.009326131994966637,0.1965051831543402
3199.7871682964355,0.48080880643364265,0.008915413377910256,0.4718933930557324
3202.936453807819,0.4957404293981493,0.01286489701304004,0.4828755323851092
3208.8624824063863,0.18207064420114616,0.016170220163836527,0.16590042403730962
3212.961673159343,0.2743353107276771,0.09140200602610198,0.18293330470157512
3218.1909272617904,0.7948371639689618,0.5836794046232147,0.21115775934574707
3221.8604339488957,1.0289314816162634,0.8386980491194688,0.19023343249679464
3229.291056290313,0.7650852065599113,0.6180296824041056,0.14705552415580567
3250.6853063538824,0.39763388685770634,0.31899008360454056,0.07864380325316578
3581.4903097987517,0.27400482599091697,0.23439599192959884,0.03960883406131814
3861.3281597381574,0.30063868162539553,0.13348281722863264,0.16715586439676286
