frequency_cm1,total_intensity,isotropic_intensity,anisotropic_intensity
1.2666394896346174,0.0,0.0,0.0
2.068387126186234e-05,0.0,0.0,0.0
3.1891995890434155e-05,0.0,0.0,0.0
3.659648043931671e-05,0.0,0.0,0.0
1.38548601639105,0.0,0.0,0.0
2.066413582596427,0.0,0.0,0.0
27.654134570539906,0.0015188603768805388,7.420144459820723e-06,0.001511440232420718
32.13747062391015,0.0017690104951636006,1.0666375847669144e-05,0.0017583441193159315
45.655240340418835,0.0010595468730859247,1.3407199448002548e-05,0.001046139673637922
60.10754689145016,0.004398375605587856,0.00016125066071771732,0.004237124944870139
70.40714288678893,0.0039191167997464065,3.5868989005039034e-05,0.0038832478107413675
82.8879371319715,0.0006467817933092046,1.0629724727472136e-05,0.0006361520685817325
129.3214447863632,0.0036799663325307783,0.0001439671421220802,0.003535999190408698
131.7687877387478,0.00624866277898321,7.392608416419116e-05,0.006174736694819018
134.95962054829778,0.004822420458704206,7.096159067685799e-06,0.00481532429963652
150.613605643064,0.0016140133641865204,2.1297759340918302e-05,0.0015927156048456022
159.1222303920674,0.012639752564387517,2.6145805134797596e-05,0.01261360675925272
163.2608768816915,0.0015959004879088508,1.897267329757832e-05,0.0015769278146112724
230.00183725152766,0.0010536989601698194,0.00041784767993156277,0.0006358512802382566
231.98761612784605,0.0002361092517724486,6.946306999202538e-07,0.00023541462107252835
233.75703687955075,0.004312341734566329,0.0026499562361528787,0.00166238549841345
247.0157056521375,0.00817579591796307,0.0062283990231608915,0.0019473968948021789
251.43757392157508,0.0029416920777417554,0.0009007697885122691,0.0020409222892294864
253.87137603725756,0.009205629746157018,0.005528897400822975,0.0036767323453340424
260.4593461559774,0.010213054425954042,0.005345888514685711,0.004867165911268331
266.18366913939377,0.001883240787278102,0.0011989402609563213,0.0006843005263217809
274.9029711836138,0.00398348378204257,0.0023903539369957588,0.0015931298450468114
313.73676820391677,0.0008465193253185389,4.6279411072813135e-06,0.0008418913842112576
323.8730225195119,0.005657660480256341,0.00406021278074879,0.001597447699507551
352.66180355971494,0.001998183338527231,0.0010002838368883286,0.0009978995016389027
362.9003880796276,0.010605293660495013,0.007988587866529765,0.002616705793965248
376.0852353282745,0.002028021087420767,0.00024362229090345316,0.0017843987965173139
440.36259644844574,0.0193025847999331,0.018530496841849837,0.0007720879580832631
473.3109396965221,0.023473116349232097,0.022357041923149776,0.0011160744260823201
493.4161957675967,0.005341157234554198,0.000941078192304643,0.004400079042249555
512.7278474563176,0.006380683002636589,8.301628906385673e-05,0.006297666713572732
569.2323995306785,0.013206868678669062,0.00900192311375444,0.004204945564914621
582.9726412790661,0.002430138327822825,0.000728900816489297,0.001701237511333528
603.6017958966744,0.026580392297540088,0.023350776189903943,0.0032296161076361433
647.7679853921214,0.0025161038473994974,2.3650734945790833e-05,0.0024924531124537064
657.9041738516731,0.0032529344342425008,0.0025159550534858697,0.0007369793807566312
676.096073454373,0.001875448548783784,2.244322654419854e-08,0.00187542610555724
698.522657125216,0.04531127275192389,0.04192562890315744,0.003385643848766452
806.2122388939242,0.002529182936553703,0.0019167440286895824,0.0006124389078641208
842.894837658609,0.0036170584792265016,0.0009336312422423424,0.0026834272369841592
866.0584321147127,0.021919497171635695,0.014861095449546917,0.007058401722088778
908.161359135135,0.11450909792060945,0.08225867459645356,0.0322504233241559
918.5793374843265,0.0008148516812479555,0.00011887463040319263,0.0006959770508447628
927.2565555813392,0.002528357950321556,0.0005017078448739149,0.002026650105447641
931.8402256920324,0.003469085294436471,0.0011614191935611382,0.0023076661008753327
934.050390969112,0.0024622154153343097,0.0002252869457761095,0.0022369284695582
936.3015081757393,0.0021064594741901127,0.00038914844889720947,0.0017173110252929034
960.8871449792629,0.006416518494904256,0.00618065597927061,0.00023586251563364552
969.2900798295312,0.008840844686562068,0.0038064027338625406,0.005034441952699527
973.4874963951363,0.014184261945389161,3.959198248818483e-05,0.014144669962900976
974.0933391973482,0.012733692884275718,7.776134377508277e-05,0.012655931540500636
977.0977366374349,0.01390476024574019,9.487461062336594e-06,0.013895272784677854
979.9856480118052,0.01120386547008762,0.00016825998775657898,0.011035605482331042
1039.2359873374014,0.005096522975314764,0.0008220603131212054,0.004274462662193558
1074.001042227794,0.09887149974071342,0.08481450788525524,0.014056991855458178
1085.4774666074122,0.008267456537340274,0.0013656027119497616,0.006901853825390512
1093.3031516744718,0.005492987641291641,0.003076835410222182,0.0024161522310694582
1123.715586337355,0.005365639567564903,0.000380269817679921,0.004985369749884982
1139.3389946687605,0.015785508263426246,6.899838499640992e-05,0.015716509878429836
1140.7559296174081,0.01897339409693117,0.0005615944864705886,0.01841179961046058
1141.8934424869415,0.04083344839015045,0.0014357797875138422,0.039397668602636604
1161.8341568173944,0.008275547321767416,0.0032065505275461715,0.0050689967942212436
1184.5940702726439,0.013780110015810806,0.0037345648947510217,0.010045545121059783
1203.84514909038,0.0015534676789952053,2.437745641933207e-05,0.0015290902225758732
1218.5100412583186,0.02162719897046431,0.005393975307629661,0.01623322366283465
1264.695313082931,0.012351621420564667,0.00018022180204763013,0.012171399618517036
1276.5243587306118,0.007957114841781254,0.00013098711599662767,0.007826127725784626
1294.2690331592912,0.0038241469864267246,0.002527113421192369,0.0012970335652343558
1316.1453489123041,0.17370966335999227,0.1415106473935754,0.03219901596641685
1334.2785197882474,0.03410794958478855,0.015681890384934,0.01842605919985455
1344.6138668763597,0.02319267700374564,1.2950275895660457e-05,0.02317972672784998
1349.8182807492844,0.02384833702683666,4.7855033565798085e-06,0.02384355152348008
1357.2241733701637,0.011819331283537243,0.004814543261604424,0.007004788021932819
1380.782483949319,0.02982161936833949,0.025014157394356352,0.00480746197398314
1387.4520144706769,0.00812003947326275,6.814544074605248e-05,0.008051894032516696
1394.733884060056,0.017614539180027367,0.012082388754889607,0.005532150425137758
1396.587330761166,0.002571371067990287,0.00045869272632928845,0.0021126783416609983
1397.7770528185767,0.0006370035800827446,0.0001423367147719338,0.0004946668653108108
1397.9942052753875,0.00040807723767122164,0.00020195717763394136,0.0002061200600372803
1414.6111606732313,0.01065713997037372,0.00032844160239228336,0.010328698367981436
1415.87674873016,0.00482694015682585,0.00015868885441622184,0.004668251302409629
1417.0899472788585,0.0027028430025900253,5.58975254120166e-05,0.002646945477178009
1460.5767903400722,0.024347671915421552,0.000244854731417522,0.02410281718400403
1463.091785708694,0.02000626597661777,0.0008228266629673203,0.019183439313650453
1479.085293946077,0.034633158430461046,4.16412623686828e-06,0.03462899430422418
1479.8138494101972,0.05180971371587797,2.1384822637763762e-07,0.05180949986765159
1481.503533395108,0.027403417097296455,0.00015676752631970048,0.027246649570976753
1483.6276251675429,0.007563838600202395,0.00012204431778362088,0.007441794282418775
1485.7414055340828,0.0035247894702235103,8.21768560984045e-07,0.003523967701662526
1487.9950560089983,0.0006613460005008292,4.8373878262070836e-05,0.0006129721222387584
1491.132260694441,0.010289818033744702,0.0006368957260805918,0.00965292230766411
1496.4673211952409,0.029000954002272084,0.00021414898869040022,0.028786805013581683
1497.5791441275276,0.03775692043086783,0.0009360602756257885,0.03682086015524204
1501.1224489627994,0.015077853554619514,0.0019058586499240604,0.013171994904695453
1503.9348694331645,0.025690609236017244,0.0008448520909096971,0.024845757145107547
1506.89206711038,0.04094278231691463,0.018807711646470472,0.022135070670444162
1508.207725134179,0.018989205708429692,0.008438679949854285,0.010550525758575409
1528.9054222899588,0.004258285334732389,0.001395713720359477,0.0028625716143729123
1648.8976065430734,0.041011644196154995,1.0806616604725332e-05,0.04100083757955027
1686.3715606724465,0.14330067908939542,0.022237172184226415,0.121063506905169
1804.9510044648575,0.0532168260706066,0.012234316580600764,0.040982509490005835
3053.169123260122,0.04785025601585709,0.023640617706985775,0.024209638308871316
3053.593584619912,0.32050047535082854,0.2675972004188151,0.05290327493201345
3054.4648434945184,1.2880299191837488,1.1905926944778904,0.09743722470585835
3056.744728285816,0.6583668627927446,0.5273205144062448,0.1310463483864997
3056.8319746165353,0.13462934824277112,0.11196121027689979,0.022668137965871346
3058.492090079321,0.8437588163499526,0.8081396401823333,0.035619176167619365
3059.699194553267,1.6001082111853862,1.543813471876567,0.05629473930881921
3060.7843463772274,0.7492046710386484,0.6509131042117676,0.0982915668268808
3064.20244137036,0.5364472736072061,0.48410825420456005,0.05233901940264609
3083.1271356487846,0.29862692310018396,0.11881577124627514,0.17981115185390883
3115.946181102815,0.06310590379268328,0.0007194344879930387,0.062386469304690245
3116.238677028172,0.10905176978789308,0.018954169806060427,0.09009759998183264
3121.080042981564,0.04064918514329197,0.00016219290809092323,0.04048699223520105
3121.7160151391445,0.6814453260103669,0.14206214588211932,0.5393831801282476
3122.8337729511118,0.31070270785921816,0.06000146691458235,0.2507012409446358
3124.078188607339,0.3012475329284472,0.08152782414993404,0.21971970877851316
3125.609520870066,0.2490524679502782,0.007952943246391059,0.24109952470388712
3128.060343804554,0.5312263168515152,0.15618109399598962,0.37504522285552555
3128.7936981602174,0.29647809149446286,0.016302519982937507,0.28017557151152533
3129.841178203487,0.1069396068310083,4.004783871417693e-09,0.10693960282622443
3132.2668829197587,0.38996126399397724,0.0008569606389534638,0.3891043033550238
3138.068537020876,0.22072363529137562,0.007848360911808629,0.212875274379567
3150.7567824098546,0.16640248394580784,0.008457674545590071,0.15794480940021777
3173.909074453329,0.3813394401150747,0.0709459485879361,0.3103934915271386
3178.314470475481,0.2579445398109024,0.1576679978170955,0.10027654199380685
3200.085768509642,0.21771189390825815,0.1382200074682797,0.07949188643997845
