frequency_cm1,total_intensity,isotropic_intensity,anisotropic_intensity
1.3403720940498354,0.0,0.0,0.0
1.9716550910897917e-05,0.0,0.0,0.0
1.7696020399181792e-05,0.0,0.0,0.0
2.5595042304051455e-05,0.0,0.0,0.0
0.844855718813299,0.0,0.0,0.0
1.5598888629239491,0.0,0.0,0.0
24.65166270915302,0.005397927362381117,0.0003820320912786632,0.005015895271102453
37.91771566833627,0.014765726443267745,0.0006802743584619346,0.01408545208480581
46.48004866487763,0.011085798099582675,0.00016779028402447448,0.0109180078155582
52.59573748808518,0.01036028182996787,0.00014962931213483388,0.010210652517833036
73.0552223239213,0.0077498545722299835,0.000638114744439433,0.00711173982779055
92.34801353860874,0.0005669409861284203,9.391265683873152e-05,0.0004730283292896888
117.90031205391534,0.0019258354290406635,0.0005695268354406071,0.0013563085936000566
164.5681821176371,0.005227576636768726,1.9869614728620918e-05,0.005207707022040105
199.59917157862432,0.006414939139660061,0.00018416378570911265,0.0062307753539509484
211.66415523124513,0.0019786991153771458,9.665355089697682e-05,0.001882045564480169
235.53735536727476,0.0004885784775376373,2.5668949821224197e-05,0.00046290952771641306
249.68308693790323,0.00038045334348015426,5.457161135404102e-05,0.00032588173212611324
258.51987932663354,0.002480266026421838,0.000707483937336632,0.0017727820890852059
320.6200113881147,0.0040771157156931255,0.002302333989703852,0.0017747817259892733
347.0848903674741,0.011711121314693696,0.010399997635137067,0.0013111236795566297
413.29637768689884,0.00948743074244483,0.0029910663297412882,0.006496364412703542
419.2912693635827,0.00012962668331300815,6.127703351497006e-07,0.00012901391297785844
433.9588575299893,0.014959060634660595,0.01227197430451133,0.0026870863301492647
491.78433831929254,0.00208840985696395,1.3103644798313978e-07,0.002088278820515967
514.4472999864217,0.008793301703371403,0.00390614593093504,0.004887155772436363
536.5013093318463,0.006371689677506599,0.0007466807327455411,0.005625008944761058
565.0831472783225,0.007247488664612955,0.0026698993871326518,0.0045775892774803035
605.4689895287008,0.016843280252384563,0.006867464769834225,0.009975815482550339
633.8620099189018,0.01716322470431854,0.0009473691507041809,0.016215855553614357
648.4468202215829,0.015598032378186261,0.0027527667942766547,0.012845265583909606
715.7164499152584,0.0006755279212775054,3.7076099073339006e-05,0.0006384518222041665
780.1673393965893,0.006942238119128318,5.5809600572911546e-05,0.006886428518555407
804.8157645278301,0.0022000655798831903,0.00023229747274029205,0.0019677681071428982
809.5681226715435,0.02605213567763231,0.019575925852158046,0.006476209825474261
825.6947283124274,0.0035509964673060366,0.003148681042103186,0.00040231542520285045
843.0003968741185,0.0036660486642970487,8.786638312731749e-07,0.0036651700004657756
870.4851994264244,0.0802816730420016,0.0738701547230698,0.006411518318931786
898.7564935840137,0.033774020246331714,0.021468162419525337,0.012305857826806375
905.7004441195852,0.010483227184038851,0.007593084219913795,0.0028901429641250576
958.1045609836629,0.014932001281362746,0.00805374360048815,0.006878257680874597
994.4440567691628,0.00023683055186642029,0.00011355791763815751,0.00012327263422826277
1015.3934980427563,0.025548143205485,0.023044179354364237,0.002503963851120761
1016.1571370542555,0.12962572459983365,0.11003679038807093,0.01958893421176271
1050.9788777654237,0.01946277928326332,9.440006307968024e-05,0.019368379220183637
1060.5472719808872,0.12522220943741288,0.11024009280046468,0.014982116636948217
1077.4367918783526,0.004910179640079597,0.0010710073919809663,0.0038391722480986303
1103.1958542245588,0.014852179582249441,0.006282417916759592,0.00856976166548985
1108.0663266863894,0.022601060867261703,0.015167646182479733,0.007433414684781969
1110.1634135009874,0.011670676071974515,0.00729229979053442,0.004378376281440095
1119.4221168689478,0.010904390660165183,0.005197589056092083,0.0057068016040731
1140.813373964367,0.0043434124354801255,0.0024987608529038726,0.001844651582576253
1165.7969399410836,0.011364063112324733,0.005361876255267815,0.006002186857056918
1172.0784381032186,0.018991162774802717,7.064059275831578e-05,0.018920522182044403
1176.6171083677264,0.017662121600297894,0.0031646186817271566,0.014497502918570737
1181.0146825140603,0.009046074412992568,0.0007148126456988499,0.00833126176729372
1205.6985759428467,0.021075517771147727,0.00981856267071668,0.011256955100431048
1213.0435026031325,0.0025023974535557224,0.0001632691158966076,0.002339128337659115
1265.9158179386106,0.03568958331261147,0.03225769532667033,0.0034318879859411354
1292.1319809253673,0.05032197741949071,0.03950405160148502,0.010817925818005692
1310.2105806103839,0.019787102595844173,0.00036579441395978715,0.019421308181884388
1322.0233802754806,0.01738660843373036,3.3003885087585826e-05,0.017353604548642772
1338.365959541362,0.03878282386197547,0.027718829506373333,0.011063994355602135
1352.3236244168518,0.04747467932511176,0.02493091603793919,0.022543763287172572
1364.3439237029277,0.017160380194682582,0.009881789384754456,0.007278590809928125
1390.559903318194,0.0028976384309432244,0.00023459845442387356,0.002663039976519351
1395.1591701562643,0.00259260025250758,0.00022825124271202353,0.0023643490097955563
1409.6889404989574,0.01010802957999312,0.000554668967612118,0.009553360612381002
1414.4991602634627,0.010956923526789467,0.00031650938698333766,0.01064041413980613
1426.5808088504284,0.01622592362863342,0.004675659569531913,0.011550264059101506
1453.4984650336112,0.015060344994145191,0.00011439715376073895,0.014945947840384452
1475.1010686645434,0.030241243881991432,0.0023484327007902025,0.02789281118120123
1476.2863776383135,0.01695823105113606,0.0009635962912988664,0.015994634759837194
1479.258242359344,0.03270002826788595,0.00014088442026677342,0.032559143847619175
1489.0528875319842,0.0169687417176709,0.0016737306131513218,0.015295011104519578
1491.5176259127877,0.008744214850094426,6.93363843337154e-05,0.00867487846576071
1494.3645219901596,0.05913388050356354,0.0031660145588947694,0.055967865944668765
1511.240977134041,0.004237920472845521,2.2859125633105708e-05,0.004215061347212415
1522.6678888329811,0.012185304336930245,0.00020602971822787002,0.011979274618702376
1543.1955166076214,0.004530951872582308,0.0019621953589277286,0.002568756513654579
1555.8955765373018,0.025931978378579912,0.009359307731263975,0.016572670647315935
1663.3895057848306,0.022491096860159855,0.00041252964343302547,0.02207856721672683
1680.7174352160102,0.2509748242145058,0.04323071520192098,0.20774410901258478
3009.6583278875,0.05735302936690218,0.010412764882130913,0.04694026448477127
3019.7853261660402,0.26798103613860297,0.19224337554427776,0.0757376605943252
3035.895932936274,0.6415444330661282,0.5669623570564847,0.07458207600964356
3055.9888841184684,0.32145663613080455,0.06639752657079798,0.25505910956000655
3062.3830819368227,0.9734143301503377,0.8813251040951144,0.09208922605522324
3066.8906658485553,0.7408466245328642,0.7295290509174797,0.011317573615384496
3101.629748498763,0.6332803176128117,0.2744398617827789,0.3588404558300327
3104.4624737226814,0.4894074934972006,0.41465616603225386,0.07475132746494673
3131.1709446652308,0.30165600925129393,0.0027488585263334294,0.2989071507249605
3138.533627812367,0.2443436629483684,0.003224904180157547,0.24111875876821084
3140.959980362559,0.12680120977530654,5.12501005102071e-05,0.12674995967479633
3147.9345538091716,0.21896306861272266,0.014385164166376276,0.20457790444634638
3156.423482698102,0.08678477477731837,8.60869363704483e-05,0.08669868784094792
3181.853308479198,0.17251493016153724,0.020060281424396892,0.15245464873714035
3191.8890693868307,0.4851313406211871,0.12666773379238974,0.35846360682879735
3202.135550616389,0.42411720330880476,0.10090395354170975,0.32321324976709503
3219.5267028256358,0.4710171537450619,0.27231254974768376,0.19870460399737816
3225.8619594276834,0.9691248895999552,0.7935595429676477,0.17556534663230747
3635.3868281440423,0.30356987338930885,0.22530253022974478,0.07826734315956407
