frequency_cm1,total_intensity,isotropic_intensity,anisotropic_intensity
1.3158795546348672,0.0,0.0,0.0
3.396578832519538e-05,0.0,0.0,0.0
1.0217518928615772e-05,0.0,0.0,0.0
1.5291249826156158e-05,0.0,0.0,0.0
0.7762748232002089,0.0,0.0,0.0
0.8586858701630857,0.0,0.0,0.0
23.281728510996377,0.0005299043596355155,0.0002198249439736053,0.0003100794156619102
42.574115726918244,0.03507049546017657,2.536296827271394e-07,0.03507024183049384
55.30461490370484,0.023734486669884862,1.6743154411227156e-06,0.02373281235444374
58.33565882363371,0.020396282777830642,3.6662393445116686e-06,0.02039261653848613
62.446597602336425,0.04011633172962493,1.8927124359974802e-05,0.04009740460526495
76.5156015783944,0.010926601954542144,9.047341664868571e-07,0.010925697220375657
89.30021884300604,0.005221952935976105,2.4161514331601673e-06,0.005219536784542945
94.32187502496288,0.0033416841885789738,1.0055696508638497e-08,0.0033416741328824652
109.5330060916647,0.032578945526772075,6.198425180773953e-07,0.032578325684254
178.0269048179602,0.0015824067845927217,1.721353966373447e-05,0.0015651932449289871
224.8185013574147,0.005901013138236376,0.0001431082299694101,0.005757904908266966
241.4477232090838,0.012327939797656359,0.003410342220580889,0.00891759757707547
264.97900741760196,0.034731643083193244,0.0253126655788446,0.009418977504348645
272.0084825486541,0.016661137505368913,0.008775033379620165,0.00788610412574875
283.0456198681192,0.0036182311665453144,0.00019990240336677177,0.0034183287631785425
289.19420857098567,0.0023477407820435433,1.578509269561198e-05,0.0023319556893479313
294.9007490994472,0.01100761245237112,0.005716106133952482,0.005291506318418638
298.5818871950719,0.005928273962593189,0.000917474147653669,0.005010799814939519
331.8673697338855,0.004999869660305829,0.00016340767951987214,0.004836461980785957
379.65220469160215,0.011188242836916409,0.0008386515955699521,0.010349591241346457
406.9351868894938,0.0057729018656569675,7.609501804033908e-05,0.005696806847616628
418.6422170138092,0.0012061233269766809,2.8423265408871833e-05,0.001177700061567809
422.44775724555905,0.00045610892721861324,2.0814147189538458e-05,0.0004352947800290748
425.51456755738377,0.0004373006195405575,2.899085162445478e-05,0.0004083097679161027
433.2859154436201,0.0005962210158055005,1.0354274276280157e-05,0.0005858667415292204
500.8763909237208,0.0006082664486086856,2.676653363094815e-05,0.0005814999149777374
515.2574687306445,0.0028219020711346843,0.0008135943823368626,0.0020083076887978217
534.9323544545165,0.004554019202541498,0.0029500077359063356,0.0016040114666351624
556.0797183780395,0.0063974950286131115,0.0011635816689651763,0.005233913359647935
595.253064434006,0.009738487837323132,0.008152698833767473,0.001585789003555659
618.162928199589,0.08675908533716895,0.0317690020183271,0.05499008331884184
635.4373106330963,0.01819313294149996,0.0003836371632044899,0.017809495778295468
635.6530714589653,0.016689668232099084,0.0001957543551348852,0.016493913876964198
637.8348305677231,0.02569382768079868,3.5495949631095496e-06,0.02569027808583557
647.7642858088983,0.026169750673286384,0.00014896592882869704,0.026020784744457688
651.8541780498649,0.01794279149404817,0.00043678703755641,0.01750600445649176
663.603019107372,0.01764041715516617,6.415185333232111e-05,0.01757626530183385
702.4914611233365,0.03852119643038973,0.037495436531163794,0.0010257598992259357
722.9198236598189,0.0008003877813864007,0.0006489283946303392,0.00015145938675606153
727.429903084796,0.0005442730306637958,2.871953000625697e-05,0.0005155535006575388
728.9409710511773,0.0012992192173775768,0.001149185873217578,0.00015003334415999883
759.3391729795266,0.00977610227845924,0.0007922430421874732,0.008983859236271766
775.5037413354739,0.007423329298297624,0.0033770118333226544,0.00404631746497497
787.1463351045951,0.011867762099452561,0.003332562544169373,0.008535199555283188
797.1647818493005,0.007865630617324669,0.001372128927456618,0.00649350168986805
842.847748140552,0.03590703266986595,0.031032086339300106,0.004874946330565849
848.3746898109392,0.09966351914115122,0.09076831666674057,0.00889520247441066
862.7323620850967,0.08548222368478842,0.0777023697463638,0.007779853938424613
876.7164661572003,0.0039513290953089,0.00018517274941084257,0.0037661563458980573
879.2976279987907,0.0011047364602558662,0.000440231357856808,0.0006645051023990581
882.8955079698757,0.003982927631838424,0.0003973121752669108,0.003585615456571513
926.9658490749705,0.013258502249925676,5.3981343204877756e-05,0.013204520906720798
928.26765471821,0.0369309496803845,0.01110679411240606,0.025824155567978447
935.7484955341592,0.018281898546512732,5.381945286386704e-06,0.018276516601226346
967.0145365431111,0.010103227422550435,0.004760651335336214,0.005342576087214221
973.2882206638523,0.011006135265270112,0.001429174117546726,0.009576961147723386
979.6571116276691,0.01491895130181448,0.00042638238848517583,0.014492568913329304
989.4637597876255,0.0061775595275677594,0.00031737967789842567,0.005860179849669334
1004.1236485712884,0.0015254166986974464,0.00015349178939663607,0.0013719249093008103
1016.3422502273116,0.0017153293620238838,0.0016201026277861406,9.522673423774328e-05
1017.3584928559088,0.0004127653169469498,9.182590031225941e-06,0.00040358272691572384
1020.367094860831,0.0021457578284671277,0.0003339778486327986,0.001811779979834329
1027.8244584467666,0.024443655603978817,0.0073461846093446645,0.017097470994634153
1028.6214083383472,0.029406883147018628,0.00018644959117741674,0.02922043355584121
1029.7882764259384,0.30476280409836703,0.29983006915881893,0.004932734939548109
1030.6325088280807,0.029125536086834186,0.0289299424499833,0.0001955936368508856
1031.2830556289803,0.004965550558672547,0.003946647948725778,0.0010189026099467688
1031.6003478456448,0.06892794280971143,0.06772821374545246,0.0011997290642589665
1042.5216085350485,0.03182768012572138,0.02746328663960821,0.004364393486113172
1069.7000394465251,0.570397310693714,0.5642900721664159,0.006107238527298121
1071.9959062987662,0.03224668569821138,3.366521379953652e-06,0.03224331917683143
1073.0113807063708,0.024597044452385416,0.005668647030195467,0.01892839742218995
1097.8548980507835,0.0010796702328305402,0.00015923870346841042,0.0009204315293621297
1121.1115761245815,0.009117440718014002,0.006575008114795229,0.002542432603218772
1122.4487743436978,0.004208668312605185,0.0003147056213750425,0.0038939626912301425
1123.695208957185,0.004606783688175316,9.332540109158263e-06,0.004597451148066158
1155.1815149569215,0.007662743564464199,0.006326155849711913,0.0013365877147522864
1173.1781529706097,0.058202995974300314,0.04370787175816018,0.014495124216140133
1174.0053808042444,0.004166953571231372,0.00011194369849549469,0.0040550098727358775
1175.9103047646595,0.02238789968809598,0.0037103468639792924,0.018677552824116685
1185.2100627726925,0.41482416739799494,0.41365030452984136,0.0011738628681535975
1216.787855005605,0.005138050779026048,9.712550854447309e-06,0.0051283382281716
1217.7933721721713,0.04937804902274075,0.0006042203670913086,0.048773828655649436
1218.4763360443883,0.03215658791552028,0.006686150714267246,0.025470437201253034
1219.1449547533211,0.05121542534550039,0.004388463466572448,0.04682696187892794
1223.8080939001138,0.007331576666741712,0.0011248160441241315,0.006206760622617581
1225.34267045677,0.025108301591577543,0.0024567668250687195,0.022651534766508823
1259.362377247288,0.040725674241842064,0.0010138402279529534,0.039711834013889113
1303.183865583485,0.0076871319874167385,0.00033930591170719447,0.007347826075709544
1307.9537307762057,0.045971512761576724,0.04127005694694463,0.00470145581463209
1309.2997286668026,0.010756230083680344,0.0011927472431774923,0.009563482840502851
1314.6260493832442,0.03961714344441457,0.02735478134734833,0.012262362097066236
1322.4336749208305,0.09095769361499653,0.05691972223289995,0.03403797138209659
1362.7044336929296,0.011772067200399007,0.004032061592732919,0.007740005607666088
1364.9696446464163,0.005810979563369102,0.002091751922248283,0.0037192276411208195
1366.128833246656,0.005247372332031528,0.00010998143682147438,0.005137390895210054
1366.7508543879985,0.001743882217363735,1.953869579423025e-06,0.001741928347784312
1476.6390290445331,0.004359514407897388,0.00011309862751885501,0.0042464157803785325
1486.4311665997675,0.004254480827203023,5.202285118656019e-05,0.004202457976016463
1489.4012322461645,0.0013873262290543089,2.0502516441402214e-05,0.0013668237126129067
1494.6005357681818,0.007861723544692945,1.646251738087106e-05,0.007845261027312074
1543.2888132261342,0.00522301615403497,5.473480424321995e-05,0.0051682813497917505
1543.6391967286688,0.00496273997187545,0.0001565856847538256,0.004806154287121624
1545.7278295447152,0.004419767756198807,5.706927551040145e-05,0.004362698480688406
1565.2165580215444,0.004393387599421089,2.730885114351513e-06,0.004390656714306737
1648.9004526067802,0.023985861293015914,0.011901457174236884,0.012084404118779028
1655.5892660247875,0.01872874373976272,0.0014113905612271704,0.017317353178535548
1657.4809446142544,0.027837841365534216,0.00016900204212663033,0.027668839323407586
1658.2977598087496,0.025699379158460094,8.924354268284867e-07,0.025698486723033265
1663.7452054955133,0.06991427571539999,7.95852206925846e-06,0.06990631719333072
1679.1446632576335,0.1118311931991342,0.00020266512725048967,0.11162852807188371
1679.2535101116714,0.10751101667403455,2.441161544307667e-05,0.10748660505859148
1684.0979232052634,0.06765363538126186,0.025492028257886743,0.04216160712337511
1697.0965596357676,0.4558814649767273,0.14928813985222616,0.30659332512450116
3186.1907302305376,0.4143700919508356,0.014636964309914065,0.3997331276409215
3186.2916458174477,0.2405336141469318,0.1548370959453966,0.08569651820153522
3189.870644101108,0.18233840407833737,0.00024172487161857107,0.1820966792067188
3189.975124942549,0.1743559572127939,0.0001796010017622606,0.17417635621103164
3190.117078906486,0.10581948692956462,0.0008846996357686394,0.10493478729379599
3198.568237639042,0.27421012341592554,0.01049947357691371,0.2637106498390118
3198.845665645361,0.37016176580256305,0.026262494418178694,0.34389927138438436
3199.183596852805,0.5674222006250264,0.0004864033317402777,0.566935797293286
3205.2013149672293,0.31774333366907886,0.22786894428650367,0.08987438938257518
3207.2050572052112,0.38972925540585013,0.05085852476032181,0.3388707306455283
3207.539993713328,0.3021869311916337,0.023927915593761638,0.2782590155978721
3207.6047734604995,0.235661169123366,0.04487526257546877,0.19078590654789723
3217.793644852041,0.5183766728068788,0.006594128249068286,0.5117825445578106
3217.839390030349,0.9043659059895179,0.628954108706575,0.2754117972829429
3218.1544125424275,1.5587726027594337,1.5125804675915044,0.0461921351679294
3237.784589112634,0.2559534493058543,0.11700743701594904,0.13894601228990522
3239.575379518561,0.33575451320238126,0.1981171245112278,0.13763738869115344
3240.381026331329,0.2186760269570434,0.07340999055081557,0.14526603640622784
3240.913993152342,0.6587214561298915,0.584625849440012,0.07409560668987963
3599.592606948302,1.1032780172241516,0.7888341319791763,0.31444388524497535
3695.499442525672,0.3419137632654788,2.99099735569478e-05,0.34188385329192184
