frequency_cm1,total_intensity,isotropic_intensity,anisotropic_intensity
0.7969410544337853,0.0,0.0,0.0
2.7580222844490182e-05,0.0,0.0,0.0
1.5318496592624875e-05,0.0,0.0,0.0
1.8523301077738436e-05,0.0,0.0,0.0
0.5199613706727888,0.0,0.0,0.0
1.6243662058298804,0.0,0.0,0.0
9.683096049908455,0.011509305649998575,3.628257922368121e-06,0.011505677392076207
14.934834179371595,0.010967340101187478,7.502623307987944e-06,0.01095983747787949
26.577717342164327,0.01776338546704152,4.8692901205900366e-05,0.01771469256583562
48.38763657925301,0.020387969306735174,2.5159791989456602e-08,0.020387944146943185
51.21409089248445,0.028527785009753164,7.605372926086406e-05,0.0284517312804923
58.20401337798508,0.005601484737456422,0.00045784831161231257,0.005143636425844109
168.28052616687006,0.005341491551890248,8.045251737647429e-05,0.005261039034513774
174.44960142370678,0.012824543843134298,0.00036769382166554235,0.012456850021468756
183.1247922773163,0.00958848422286655,0.000828312484003303,0.008760171738863246
215.02345235489352,0.010176296454827073,0.005278833633271724,0.004897462821555348
235.14342326448056,0.004112320963042972,0.000835917492563325,0.0032764034704796468
238.5091601501839,0.008171997084650873,0.002190019303568111,0.005981977781082763
239.54443574305043,0.01012133252971708,0.0011038764061305397,0.00901745612358654
246.13313538545077,0.012870770086917763,0.00039952351949439324,0.01247124656742337
250.11001185894617,0.013114718769649661,0.010943345573148931,0.0021713731965007288
379.3481502293447,0.016634483979501066,0.015512654383732151,0.0011218295957689133
409.6891871021308,0.002527782606384099,0.00016203488573970738,0.0023657477206443915
428.6119426766279,0.00354014895484827,0.0014898736591191816,0.002050275295729088
443.34827147455815,0.0010511055950859546,0.00015110594514301166,0.0008999996499429428
445.6828277880423,0.0021148731186975407,0.0015530198288116637,0.0005618532898858769
449.7906627487919,0.0006078812643137892,0.0002903894406752707,0.00031749182363851843
472.84991948187184,0.002244257379357453,0.00011043737955454831,0.0021338199998029044
478.8697541277286,0.006488292738608908,0.0028870156283877894,0.003601277110221119
484.6657787610823,0.007992082407985589,0.003828094006323482,0.004163988401662108
528.9834288679614,0.014451610737591694,0.0035489927695476196,0.010902617968044075
529.2865906186288,0.01964432087484741,0.01048066709099727,0.009163653783850138
530.7411660223419,0.0174234511018821,0.010552314932553512,0.006871136169328586
589.6254935225796,0.007162660776713347,0.00020484279837859148,0.006957817978334755
591.8191514357053,0.0029646483155942116,0.0009885311706754156,0.001976117144918796
602.975435368632,0.0026264919934656057,0.0001057168364212635,0.002520775157044342
690.1200399601606,0.09775950916237935,0.09163773383937944,0.006121775322999912
697.7231256461155,0.02000385490742467,0.0007667610044329492,0.019237093902991723
702.2961582829729,0.015172137728074837,0.00011280656545681745,0.01505933116261802
715.7738221978381,0.018450879767129787,0.01747010118121941,0.0009807785859103756
717.3976898999006,0.0025971024049362885,1.2420400809219464e-05,0.002584682004127069
719.2961116277139,0.00700470303074895,0.0014664236340402766,0.005538279396708674
811.295954006374,0.0021387970874360888,2.9596663521385835e-05,0.002109200423914703
813.0695935999001,0.003674556494133339,6.405329702753314e-05,0.003610503197105806
814.2297160154945,0.004819878928702243,0.003246078945325319,0.0015737999833769249
904.0542644826343,0.0637329075240984,0.048149421906483046,0.015583485617615345
905.7150085229312,0.006372015642521282,1.3303253538669092e-05,0.0063587123889826125
908.7356884518987,0.05547200386428566,0.03535048994583074,0.020121513918454924
909.4041389277272,0.018781735462555738,0.0005522560480279728,0.018229479414527766
914.0505791078537,0.03987155117051435,0.006409085513895366,0.033462465656618985
915.399121301137,0.03254599763646643,0.0025319392588605814,0.030014058377605846
933.9971325281664,0.003706788085873309,0.002291747582905405,0.0014150405029679037
935.4767799413863,0.005276733473086503,0.0024466909265381896,0.002830042546548313
937.6303039086782,0.006878991752590438,0.004151094607719009,0.002727897144871429
1014.8149370977688,0.0011273726691260499,0.0003518457444510911,0.0007755269246749587
1015.3893077952165,0.0009186450127594868,0.0004570211365269489,0.00046162387623253784
1015.857669110545,0.0014275010939144679,0.0008908571168430635,0.0005366439770714043
1027.4687821079538,0.8147196786156495,0.781342169658287,0.03337750895736255
1028.3724547235552,0.05974022410556469,0.00521938835437348,0.05452083575119121
1028.5669435757509,0.054342516478999486,1.2734792660171945e-05,0.05432978168633931
1096.8111292421697,0.07382109563516544,0.06929146751273263,0.004529628122432812
1098.0336881935375,0.03982046633497768,0.030738397153598686,0.009082069181379
1098.646213186927,0.08405960533041135,0.0470520663204808,0.037007539009930555
1127.247571726442,0.00755476256270414,3.3924530927845764e-05,0.0075208380317762944
1128.6637721063316,0.030812540520197083,0.0019453111018786573,0.028867229418318426
1130.4367202375015,0.09952018823335487,0.0908103436474492,0.008709844585905683
1178.5605533559335,0.03017091664497987,0.00012151755383052947,0.030049399091149342
1180.4064020481946,0.031330363968637795,5.738460027657105e-05,0.03127297936836122
1186.761202362064,0.01792576486975299,0.0010768623477593509,0.016848902521993638
1254.1873398502319,0.07607280683298859,0.042030257597040856,0.03404254923594774
1256.4654323218922,0.06401319969091021,0.03915724520483833,0.02485595448607189
1263.370212068907,0.20690818284249313,0.18518730638452657,0.02172087645796654
1289.863334330711,0.10591756119589389,0.09039511210056646,0.015522449095327434
1291.6448116487065,0.06403379567619111,0.025069905358824744,0.03896389031736637
1294.9634204455674,0.17366737312195302,0.1567191483733564,0.0169482247485966
1337.153676288592,0.017416485317071177,0.012774751262495724,0.004641734054575453
1338.1227082014975,0.02443884422955585,0.019157540646689498,0.005281303582866354
1339.593277271006,0.011731963697216132,0.0005891970227291915,0.01114276667448694
1470.3229471947475,0.00174474284618444,0.0013769343214983612,0.0003678085246860789
1471.4472043691735,0.0040541395718790615,0.00010320263469948774,0.003950936937179574
1472.6019264228617,0.007640787503504981,0.0014072825248062255,0.006233504978698756
1525.9003013349413,0.014663491280226948,0.007407447746948209,0.007256043533278739
1525.9598534890263,0.015781496091590956,0.004101189243887794,0.011680306847703163
1529.8655347417505,0.017118054995955652,0.007148942054090557,0.009969112941865097
1658.904004360941,0.04942136211461446,0.000523309367247692,0.04889805274736677
1659.3128597198788,0.04735121512808824,0.002294243352045491,0.04505697177604275
1663.0272930524252,0.04106044050286262,0.0006962664465227683,0.04036417405633985
1675.1057741787367,0.15244547477485,0.007233045622112795,0.1452124291527372
1675.5642748413661,0.1486221378820092,7.994933377332257e-05,0.1485421885482359
1677.4478174905828,0.13126912110181663,0.10634191849596,0.024927202605856614
3192.7787133320253,0.12172491435845366,0.015296757166558917,0.10642815719189475
3194.4302055923713,0.1231326860310219,0.013356283672916356,0.10977640235810554
3203.1853438931603,0.24679516547645336,0.017156120662661263,0.2296390448137921
3213.8474740162746,0.4607704150425036,0.14059254762087733,0.3201778674216263
3214.4764899417323,0.3981997758463504,0.16198905530278546,0.23621072054356496
3215.922872123983,0.044287758159873264,0.015023798976964261,0.029263959182909006
3217.1351460605492,0.31320637702075405,0.0883633606162891,0.22484301640446497
3218.0410717198324,0.5621235407313383,0.43466422324088544,0.12745931749045286
3222.0980002466326,0.33062751987067907,0.22471163822932025,0.10591588164135879
3230.9978941773397,0.7846271598433086,0.39285736845574915,0.39176979138755946
3231.1272187973223,1.3157470699952505,1.0626284064827274,0.25311866351252305
3231.5561072336154,0.9281580808581847,0.5665428173901591,0.36161526346802564
