frequency_cm1,total_intensity,isotropic_intensity,anisotropic_intensity
1.586013897193863,0.0,0.0,0.0
1.61432377574924e-05,0.0,0.0,0.0
1.9694410676055925e-05,0.0,0.0,0.0
2.558332985476874e-05,0.0,0.0,0.0
0.4068506411225653,0.0,0.0,0.0
0.5289210798717479,0.0,0.0,0.0
9.943301290986868,0.004981847656014185,2.4141151253005127e-07,0.004981606244501655
15.954753180511755,0.0005952969822089196,3.764358445183147e-06,0.0005915326237637365
24.859154349571646,0.0033470587715374975,1.4023608334831268e-07,0.0033469185354541493
25.60861640151245,0.00888419242648264,4.238521395633672e-07,0.008883768574343077
46.92082478390779,0.001637877444039712,7.635141754671247e-05,0.0015615260264929996
51.34742630240316,0.000969599685711794,5.314635713593415e-07,0.0009690682221404346
62.19190005988234,0.00023070020412359235,9.50436325442159e-08,0.00023060516049104812
70.64812980400987,0.0012475053446264197,2.2649970023743723e-07,0.0012472788449261823
87.16565295938908,0.0004437214271027785,5.219295478760132e-08,0.00044366923414799087
97.33517808674877,0.0007555891362649313,0.000453886706270682,0.00030170242999424924
104.6741657909913,0.00042202725365951836,2.062740656581853e-06,0.0004199645130029365
119.7221664647079,0.0010292603139483683,0.0001664812380930093,0.000862779075855359
123.28872840489855,0.014491781288522762,0.009590343996475695,0.004901437292047067
136.33328428919006,0.00033616589646588463,9.285881547386931e-07,0.00033523730831114593
147.39172582776587,0.0006735450322157227,1.0943136754744356e-06,0.0006724507185402482
158.8331393301991,0.00034476326137209816,0.00028057109180080813,6.419216957129005e-05
163.10035731192,0.00017199399241065924,3.749834760142574e-08,0.00017195649406305782
171.4346284164608,0.0002501719464753562,5.849790940189581e-09,0.000250166096684416
177.99618573028684,9.935766161820185e-05,1.695311724981701e-07,9.918813044570368e-05
206.9318297072915,0.00031123333716271046,2.4683023497189506e-05,0.00028655031366552096
246.45001386273802,2.0713434174739797e-05,7.947723115296105e-11,2.0713354697508645e-05
248.5973472781296,0.0002438980619680513,1.7118912728323987e-07,0.00024372687284076808
275.76653529365683,0.0008044787835285546,4.20476078726951e-05,0.0007624311756558595
293.72755320024226,0.00507104433650584,5.2720508319102724e-08,0.005070991615997521
336.89222544431317,0.0022248860245668396,0.0011722723583688034,0.001052613666198036
363.33461378148905,0.006891313018972413,0.004868555365692416,0.002022757653279997
416.7968584486719,0.00038751305506767197,0.0002803196181553559,0.00010719343691231607
425.8538861971574,1.901821305463622e-05,7.125496562777604e-07,1.830566339835846e-05
439.3225696970496,0.0003740827128431534,0.00011281950285223116,0.00026126320999092224
481.4086928541883,0.0004653436572141715,9.791352470385461e-05,0.00036743013251031687
503.20752936619783,0.0008689389140616533,0.00017245015751172173,0.0006964887565499315
513.3050577792063,0.0015346797170019857,0.0005975875717824173,0.0009370921452195684
514.4388458092744,0.004754003813790626,1.3339104225416984e-05,0.004740664709565209
535.1901186144449,0.004982797650414735,0.0018159769609113073,0.0031668206895034273
588.1585690722641,0.008766705361431674,5.244228418022712e-07,0.008766180938589873
629.0171486060405,0.002694873536836626,9.029856094228967e-05,0.0026045749758943364
646.6634364456868,0.03531245092058386,5.238862057207651e-05,0.03526006230001179
725.0078220192603,0.0020337509697787677,2.407054099788147e-07,0.0020335102643687887
728.0531205307285,0.00011786457563565359,9.595406405724297e-07,0.00011690503499508115
729.8996944616888,1.772839168528743e-05,2.2822980720138083e-06,1.544609361327362e-05
735.2640783961498,0.0001490472694925469,1.443762668387406e-07,0.00014890289322570815
748.6929300155865,2.698029418078153e-05,7.69569450529699e-06,1.9284599675484542e-05
753.7570102744464,0.04773049754093406,0.0405504856807037,0.007180011860230359
772.8639121869082,0.00047605821779382845,5.286852476063724e-06,0.00047077136531776474
797.7301722023205,0.0021538697294811045,2.83362768681782e-06,0.002151036101794287
808.6683495391545,7.288827232746845e-05,3.6172700855866693e-06,6.927100224188178e-05
842.403468281907,0.0018453218362300403,7.074778517831952e-09,0.0018453147614515225
856.276267338561,0.0014127201465498848,6.0072030468993577e-05,0.0013526481160808911
864.5392695332584,0.16349027499079194,0.1435420644481445,0.019948210542647435
883.0027020882695,4.0754313149241804e-05,1.012432181083978e-05,3.062999133840202e-05
907.9323727357831,0.00011311160697896245,7.34302856377449e-05,3.968132134121755e-05
908.3060560344767,0.033851376024904116,0.02067738021821375,0.013173995806690363
961.8919680054655,0.00036912621878782857,2.777645173836911e-06,0.00036634857361399166
996.7038985537271,0.00026332048475601836,6.971733600489964e-07,0.00026262331139596936
1008.7795405803037,0.0018476651400522984,0.0006006586479244915,0.001247006492127807
1013.7250128412663,6.729366573935524e-05,1.091811419514561e-06,6.620185431984067e-05
1017.3637645843379,4.806978960306333e-06,1.8179578840258875e-07,4.625183171903744e-06
1018.4204879322239,0.0024977925683527646,0.0012320066045401006,0.001265785963812664
1033.6373851316935,0.004913358225398947,0.00012645775101903398,0.004786900474379913
1038.1303989103003,0.01161066328115875,0.00963077784150576,0.001979885439652989
1055.1994211263373,6.029906979118423e-05,1.2224263963003305e-06,5.90766433948839e-05
1061.0658364721235,0.003797543041057098,0.00019841456594736024,0.0035991284751097376
1069.115504604989,0.00684908174661749,0.0004247777422418423,0.006424304004375648
1082.7576987626885,0.01211429362769994,0.002530399104406914,0.009583894523293026
1087.9661342927707,0.0899484171251808,0.001508180128431604,0.08844023699674919
1091.0964947558825,0.005088509920408616,0.00010973270842520789,0.0049787772119834085
1092.276188949496,0.01001947681755958,0.0032466232849851736,0.006772853532574407
1094.9688582265435,0.026039322127434837,0.0025794132820315986,0.02345990884540324
1118.6719073614279,0.008563475896427343,0.0010888416714006984,0.007474634225026644
1126.0396963536577,0.04052547151646639,0.019570876733865206,0.02095459478260119
1142.175351541979,0.028076580795374298,0.014870543522545195,0.013206037272829103
1158.4978652367531,0.2796053052382519,0.1634441923924645,0.1161611128457874
1189.1797620189807,0.003679287417299042,0.00014343133187512386,0.003535856085423918
1193.3175759781,0.2571963562377365,0.15472007131554272,0.10247628492219381
1209.2225558716689,0.008487664418503802,1.8175061206206037e-08,0.008487646243442596
1225.5266405136672,0.0034941966389988527,0.001501442080321183,0.00199275455867767
1227.5807005735483,0.1832265794163065,0.07277298830769695,0.11045359110860956
1235.1457401664452,0.0020590602885955916,3.1621745776334153e-07,0.002058744071137828
1255.7242575988712,0.0009634667153413421,2.9806386900647478e-05,0.0009336603284406947
1263.615849389149,0.0016433077762954829,6.366086294141049e-07,0.0016426711676660688
1284.6355179777875,0.00925310871060206,0.0027654694348413908,0.006487639275760669
1290.3253304539874,0.0006569616971232944,2.9514564733221847e-06,0.0006540102406499722
1295.9884674664322,0.10801975947140358,0.06383815250903531,0.04418160696236827
1311.8817545521952,0.00793475688430894,1.6061179791824122e-06,0.007933150766329757
1317.222705697444,0.005255812522764682,0.0034288248832219483,0.0018269876395427334
1323.2851298035457,0.09103909766070604,1.0526495550618327e-07,0.09103899239575054
1326.052802493099,0.07530163062965163,5.947736277667583e-07,0.07530103585602387
1330.3244891427566,3.865760682913137e-05,2.8903899477014665e-06,3.57672168814299e-05
1333.9363256464203,0.00048444227679131764,3.6260803617630027e-06,0.00048081619642955465
1334.2412618376716,0.052846607735939743,0.02843952534534751,0.024407082390592232
1337.7254999017202,3.992014394428072e-05,2.3967830743024283e-06,3.7523360869978295e-05
1339.3598577553262,0.005311848312042512,3.447190090858341e-06,0.0053084011219516536
1342.7460162722289,0.09487595909297632,0.056957487964651624,0.03791847112832469
1349.3534056800129,0.002703251124094364,0.0004342823545988699,0.002268968769495494
1377.9827826062465,0.004731656771501876,0.0002345057970781842,0.004497150974423692
1385.1146389449746,0.1428620397088763,0.06093461123481598,0.0819274284740603
1400.435242564218,0.0009641026499767405,0.0006800274836013776,0.00028407516637536293
1412.304445201444,0.00134804978249571,0.001016074967925156,0.0003319748145705539
1415.356158775268,0.00512830685397746,1.3910338288130366e-08,0.005128292943639172
1420.4580267426888,0.007607796231666603,9.951718295211714e-09,0.007607786279948308
1421.5440737863905,0.002106128197219445,1.5961114691685987e-05,0.002090167082527759
1436.5110845056618,0.008278276246992344,0.0012234921431079897,0.007054784103884355
1471.9671570454095,0.06018820977337213,0.029948378794985533,0.030239830978386596
1480.1631942047266,0.006968492288821009,0.001298031901255431,0.005670460387565578
1480.617375525804,0.00034473462520982117,0.00015086764499987085,0.00019386698020995032
1482.4195687144502,0.0058553928819830596,0.0037086372421932007,0.002146755639789859
1483.575382948783,0.044073924444236044,0.0038102976613284736,0.04026362678290757
1485.0852443894764,0.18491403760019087,0.015837972865458523,0.16907606473473236
1487.9782353273922,0.0013171800534797031,0.0006475810178796053,0.0006695990356000977
1492.0409140880643,0.02618011373721537,0.0021581152763329218,0.02402199846088245
1493.7901908311374,0.02706168520459165,1.4402584260655162e-07,0.027061541178749045
1496.3303819675584,0.0021907548663962478,0.0010320489220623087,0.0011587059443339393
1500.2699585419275,0.010645384000634901,0.00048196613513074244,0.010163417865504159
1503.8781892876575,0.0016033062224507805,0.0004044480388876814,0.001198858183563099
1506.2208968260802,0.0022941146545914773,1.6137654342349092e-07,0.002293953278048054
1515.9620570238503,0.015472955616490473,0.0026358651452835615,0.012837090471206913
1562.930861815151,0.011310995602179448,0.0005843293322547357,0.010726666269924712
1652.196551493469,0.16583033908099537,0.03759474780384954,0.12823559127714584
1684.3130572370183,0.9903676899370875,0.1935229958118082,0.7968446941252793
1815.764498712417,0.6490377474308573,0.3070902420978699,0.34194750533298746
3021.6971140254077,0.1277028509607115,0.12363646027823372,0.004066390682477774
3021.9619069025425,0.011797022264645308,6.681525032714083e-06,0.011790340739612593
3022.7435804999795,0.18077153290396808,0.1769747316310237,0.00379680127294437
3024.371938087766,0.747414832329438,0.7121671679268762,0.03524766440256173
3025.2390768138653,0.9166909297155803,0.903160493243934,0.013530436471646368
3027.972163432689,2.300112415326773,2.2757376484189886,0.02437476690778437
3029.8495244847672,0.22059363266699267,0.21593856869384026,0.004655063973152395
3034.7122737910877,0.24019247276075278,0.23060548689420599,0.009586985866546785
3039.489468447108,0.07602378841729396,0.06343364026335183,0.012590148153942132
3041.380439562414,0.38398061247486753,0.35828114010133966,0.025699472373527876
3043.566894557784,1.161075246000116,0.00012633462184367974,1.1609489113782723
3045.9935381358086,0.06488203779970562,2.9116736479893927e-06,0.06487912612605763
3049.5639945337743,0.9088850348779939,0.9014162364097191,0.007468798468274727
3049.9712323248027,0.3487843887349706,0.00023419407662382202,0.34855019465834675
3055.304205925853,0.014760541002324937,2.3092775436171388e-05,0.014737448226888767
3061.8815646011053,0.1715293929528928,7.23924836137909e-05,0.171457000469279
3064.405997175761,0.3495525354792645,0.3400913194923311,0.009461215986933402
3065.294836919374,0.1777232385202529,5.921572266843139e-05,0.17766402279758448
3070.3720947954694,0.038316532569920236,2.5926260862847805e-06,0.038313939943833954
3078.064902829178,0.0636180599617591,7.952831457903828e-07,0.0636172646786133
3084.7882916267367,0.0164402095052456,1.3864057880172738e-05,0.016426345447365428
3089.881545312326,0.0082478496152279,6.273216505752386e-05,0.008185117450170375
3112.2957097161297,0.038107678555616635,6.923253532586117e-05,0.03803844602029077
3112.5451710888306,0.1309127699401114,3.851392783350612e-06,0.13090891854732803
3120.646904454246,0.4100086556210487,0.06285823262392733,0.3471504229971214
3217.6479935779344,0.17141195341497642,0.013817567556049478,0.15759438585892693
3229.0425866866053,0.24378416222299476,0.025278441179374316,0.21850572104362045
3232.5065178316,0.5116973205231318,0.38364750634064443,0.12804981418248731
3243.0556348057457,0.674395930912293,0.5405824350917094,0.13381349582058352
3810.599298048436,0.7392308467565096,0.39937173944148996,0.33985910731501967
