frequency_cm1,total_intensity,isotropic_intensity,anisotropic_intensity
3.106685548053414e-05,0.0,0.0,0.0
1.3873343577124668e-05,0.0,0.0,0.0
1.250254554066085e-05,0.0,0.0,0.0
0.598289877041066,0.0,0.0,0.0
1.3985464015096802,0.0,0.0,0.0
2.3387690601376114,0.0,0.0,0.0
18.410918639859958,0.0014712189961295793,7.449279990124731e-05,0.001396726196228332
26.254085179208094,0.0006574100475701979,9.360393498476807e-05,0.0005638061125854298
42.13272369975599,0.0006779437158162536,0.00010153273578221104,0.0005764109800340425
49.94315472226451,0.0006348177826177454,2.878802312861521e-08,0.0006347889945946168
73.38187948702847,0.00020123127786992305,4.693977329716543e-06,0.0001965373005402065
78.15265326923448,0.0007287417297751516,6.177244444532502e-05,0.0006669692853298266
114.4330104180181,0.0003466393008311015,3.268563247223013e-05,0.00031395366835887135
133.53545675714375,0.00031318840498423923,4.359326666966933e-05,0.0002695951383145699
158.29146180539527,0.0025066445881836465,0.00012068440639033898,0.0023859601817933073
165.23946615135162,0.00018687158295251145,3.744203144594593e-06,0.00018312737980791686
180.3344373159022,0.0022451251029599086,8.946523570300656e-05,0.002155659867256902
196.2601400270357,0.0025624981522813367,0.0006289896418009516,0.001933508510480385
229.91408664921892,0.003468493423652599,5.896305915686755e-05,0.0034095303644957314
235.50496795654618,0.0012921892453078604,0.0009273927482311638,0.0003647964970766965
247.16749103449737,0.002465254273324605,0.0010249792632391946,0.0014402750100854108
257.5985810025825,0.005000064354754688,0.002831766552421497,0.002168297802333191
260.5044023317987,0.0010004676452582476,1.431850158870201e-05,0.0009861491436695456
336.4395044603479,0.01669103115521837,0.01304800040893333,0.00364303074628504
381.9386448515581,0.025670350436920276,0.016731329001938293,0.008939021434981983
398.42876187452015,0.001426081302936004,1.789929701327232e-05,0.0014081820059227317
418.91433883092,0.0004927671963781333,6.417199659520928e-05,0.0004285951997829241
477.43745692525346,0.004068932691235599,0.0018563237102861908,0.002212608980949408
492.4742334702762,0.00491876677405163,6.347623035912236e-05,0.004855290543692508
532.939417842921,0.004197315497592862,3.7200321711019267e-06,0.00419359546542176
737.5067498295812,0.04580365520852308,0.04354864097553168,0.0022550142329913984
742.5782401011469,0.010953512882025994,0.010098094881616919,0.0008554180004090765
746.8532927533196,0.013247540229040587,0.012514258995293948,0.0007332812337466381
800.638118406574,0.0032474076629086836,0.0002563028230877429,0.0029911048398209407
807.688028146639,0.0040294393788560465,0.0025999488806216324,0.0014294904982344145
824.2902106897172,0.007085322275894647,0.000796686891750978,0.006288635384143669
837.3462813459915,0.008407942236260508,0.0009417501130813961,0.007466192123179111
905.9080971261277,0.0033879056348308776,0.0016660901615079566,0.001721815473322921
917.4960290250517,0.00999741288926142,0.0017674125776933384,0.008230000311568082
921.9721146479914,0.06434925722864913,0.05519860960769219,0.009150647620956945
932.1874090942423,0.005167559228730087,0.0032779132004703677,0.0018896460282597193
954.7611051664628,0.0034718293954551904,0.002896149102823493,0.0005756802926316976
957.9232983213519,0.0015541223088627381,0.0009997086553425432,0.0005544136535201949
1026.244628623545,0.011635980457185828,0.0001599414259456686,0.01147603903124016
1035.22495345998,0.0025134088463989396,0.0005427912638254071,0.0019706175825735324
1073.2631419335564,0.016320381810155125,8.35195023136916e-05,0.016236862307841434
1082.6783076412785,0.021942399500010673,0.008312537412371104,0.013629862087639569
1085.4276110977842,0.04644974146304796,0.0001963085997090508,0.046253432863338904
1103.4303550678876,0.023513554421413393,0.004280813772939579,0.019232740648473814
1144.1580141008885,0.05597351979840906,0.047805185492212535,0.008168334306196528
1145.1857290010762,0.04511147846093456,0.032295543036619884,0.012815935424314672
1193.8835648968707,0.0005650974714898324,0.00010027203458890575,0.00046482543690092666
1197.6400542530025,0.0016831190130655775,0.0010336406338965177,0.00064947837916906
1265.8274800780493,0.0054009312460552485,0.002607361590699871,0.002793569655355378
1268.396977995427,0.0028267805039795474,0.0011630578684033313,0.001663722635576216
1283.8801657746299,0.025839462147799204,0.02072616983329708,0.005113292314502124
1296.2256179093515,0.0030865313260234036,0.0022525202983129182,0.0008340110277104854
1297.7700299113073,0.007198489127212106,0.005023038739437601,0.0021754503877745046
1327.682052517511,0.022531002774850303,0.0002990560559344118,0.02223194671891589
1330.3799741264597,0.029443883575685854,1.9596080610077705e-05,0.029424287495075776
1331.5329024501395,0.020158061912419797,1.8921900987503257e-08,0.02015804299051881
1340.4821174894014,0.016073958580905486,0.00010558824843265066,0.015968370332472837
1349.4474964565525,0.012118331035303524,0.0014034716068326166,0.010714859428470907
1387.6876170996186,0.0026339590033808047,1.4030461763240185e-05,0.0026199285416175647
1390.2928030523155,0.003016651072839306,4.874129016325593e-05,0.00296790978267605
1413.9057636348039,0.0006901717272461843,0.0002792767268111551,0.0004108950004350293
1414.1809059248967,0.0005648590387332496,0.00036157604565241567,0.00020328299308083393
1428.5902228243674,0.006372403310245267,9.408898627410352e-05,0.006278314323971164
1433.8845938327297,0.0033535959835265567,0.002498232760374032,0.0008553632231525246
1447.85086001058,0.01612738707230492,8.584669628311234e-07,0.016126528605342087
1452.1770198514014,0.019929036987429583,0.000304770208099151,0.01962426677933043
1483.4051952216844,0.04077102229491028,0.0015766619449422072,0.03919436034996807
1487.4169466958488,0.04144648712078173,4.001199752660078e-05,0.041406475123255126
1491.2530952020861,0.010507350291434433,8.824317085622637e-05,0.010419107120578206
1494.6321371961174,0.02785319073847302,0.0002918043677780586,0.02756138637069496
1495.3947182896343,0.019773378598764737,2.1107723982803693e-07,0.019773167521524908
1497.4186963640427,0.006014802722602437,0.00040219235960241984,0.005612610363000017
1499.9464801927777,0.02655005315140499,0.00025520767239715914,0.02629484547900783
1505.7121546310684,0.021564280141338127,0.00013301407791045493,0.02143126606342767
1508.4142466526262,0.005188662695727711,1.963585640302278e-05,0.005169026839324688
1524.4775402526768,0.01815434206008862,1.9216103341132628e-05,0.018135125956747485
3038.08016460498,0.7365553047276145,0.6423600941875509,0.09419521054006359
3040.5190280429642,0.9852199208586646,0.8845693494986043,0.10065057136006031
3047.965873907899,0.09605226128076291,0.0674862955626735,0.028565965718089406
3051.546704022835,0.9324538681364642,0.9166538001252722,0.015800068011192023
3051.9528598130337,0.49037609147201006,0.4519536696329891,0.03842242183902097
3060.976983308611,1.0881514052307104,0.9018960724965189,0.18625533273419154
3068.6704928357926,0.49494067477536474,0.12491814740822525,0.3700225273671395
3072.230930491222,0.3770752968586417,0.001004598212225886,0.37607069864641585
3075.6449251738513,0.2239543817146032,0.1525438949288391,0.0714104867857641
3084.9577363598964,0.15863861082215833,0.10906329119977197,0.04957531962238636
3086.153725076735,1.057221755843153,1.0488501228077032,0.008371633035449666
3095.5064456957402,0.04097590669700972,0.02593390628149668,0.015042000415513042
3103.0079646806767,0.15632076962703556,0.08692598811983661,0.06939478150719894
3115.3102647222945,0.1398266309601835,0.0049297387617533795,0.13489689219843012
3116.6137709981717,0.17015810719948582,0.0006961274139520285,0.1694619797855338
3125.68407926738,0.36746992927686384,0.05272352386576644,0.3147464054110974
3126.0490472554015,0.4174800540674319,0.08802255782872602,0.32945749623870585
3133.2016532671023,0.16955213955889706,0.08493429158862069,0.08461784797027637
3137.6671124822888,0.15396804954176757,0.010897387267176303,0.14307066227459125
3168.441099515034,0.2273497848837306,1.827661980639114e-05,0.2273315082639242
3171.46250411353,0.2062373716208026,0.0012199362967850675,0.20501743532401753
