frequency_cm1,total_intensity,isotropic_intensity,anisotropic_intensity
0.9353914506887102,0.0,0.0,0.0
0.6606383818736442,0.0,0.0,0.0
2.3227794462647626e-05,0.0,0.0,0.0
1.5302085508514972e-05,0.0,0.0,0.0
2.514725953201722e-05,0.0,0.0,0.0
2.2335690689020398,0.0,0.0,0.0
17.253564382383423,0.002246826401864015,4.736747291704859e-06,0.00224208965457231
19.97946863375074,0.0014980078301920434,5.958775730842895e-06,0.0014920490544612004
28.348508416077134,0.0008789949278759821,4.202660361658154e-06,0.000874792267514324
39.74582936540805,0.0008102098996997827,1.8490581047581414e-06,0.0008083608415950245
47.79319385199815,0.0006749334045411377,1.0533691244730332e-09,0.0006749323511720133
60.593567539724525,0.0007577993652668884,8.301680942799562e-05,0.0006747825558388928
67.26037171809136,0.0004258457349158368,5.901577862637818e-06,0.00041994415705319895
78.89920068606808,0.00013466690923489693,1.992729915897743e-05,0.00011473961007591951
86.67951765511077,0.00023270668159351774,5.104649997906624e-05,0.0001816601816144515
108.95912119186201,0.00026580143936437916,4.356531501299517e-05,0.000222236124351384
119.51112892765425,0.0003735160332269121,2.372280073431752e-05,0.0003497932324925946
130.11779130678838,0.00018053117107795505,0.00010309496077969137,7.743621029826368e-05
131.50483803116842,0.0001379876104432191,1.640850440731159e-05,0.00012157910603590751
152.2788840601358,0.0001427561926817628,2.3463399601210457e-05,0.00011929279308055236
154.45076924314318,0.0014324410339789438,0.0009644420341755682,0.0004679989998033755
164.7826672764911,0.00080327424075649,0.0007680564395120108,3.521780124447923e-05
167.02956128165007,0.005601717363995486,0.004951840334552799,0.0006498770294426866
192.62545681125778,0.010739106615971876,0.008254503606519128,0.0024846030094527478
245.42692434319198,0.0009420778926265382,0.00011034573500922367,0.0008317321576173144
245.73111517286287,0.0001342062531313468,1.0524055202818032e-07,0.0001341010125793186
246.7205570328319,0.003981155994344521,0.00013596883804667045,0.0038451871562978504
257.91046660384495,0.00440271117596242,0.0026114047158959136,0.0017913064600665067
270.5094307654084,0.0041138498881403,0.000371292074634606,0.0037425578135056943
285.2681704803187,0.0030129458632765405,2.0988829877367363e-05,0.002991957033399173
363.98135243830086,0.00574081874210251,0.004783089495402301,0.0009577292467002088
379.91868110862043,0.0009225420492665783,0.00038434464448957966,0.0005381974047769986
396.1117643656827,0.006001021402719919,0.0032439439064049147,0.0027570774963150036
436.0660232081647,0.0027745595841370306,0.0003052795960198848,0.002469279988117146
443.18402392227466,0.000653171829239316,0.0004095245166648593,0.0002436473125744567
486.15071440579527,0.0003603682008976513,1.98255746660189e-06,0.0003583856434310494
491.8811421572192,0.00034583540694191827,0.0002694169438803994,7.64184630615189e-05
639.8500686894345,0.009799096633489941,0.005572164718107768,0.0042269319153821735
728.3077556158165,8.59769373065271e-05,2.967786261036914e-05,5.629907469615796e-05
728.7269382009555,0.00023241592663424064,3.944069970303278e-05,0.00019297522693120786
733.1153396718622,0.0003955340947129727,0.00015890552653312142,0.00023662856817985132
741.3553530512228,0.001295675736947851,6.2675729703050025e-09,0.0012956694693748807
750.8367520620628,0.00017949571160271252,4.472106355671106e-05,0.00013477464804600146
793.1300537777846,0.0015508926107666691,2.2705308808307674e-05,0.0015281873019583614
793.6406994937136,0.0005258256992129613,4.777295966373076e-05,0.00047805273954923063
860.0138323766774,0.003056303139643904,0.002688331530101475,0.00036797160954242915
879.2012694238944,0.022589850960277442,0.018993941193666642,0.003595909766610802
886.268795651651,0.010682419475411783,0.0032950234295993763,0.007387396045812407
907.4677890924763,0.05560368439375431,0.043296874778347476,0.012306809615406833
910.8493362299503,0.009480833002358222,0.0015856537766806421,0.00789517922567758
938.5069145764675,0.002586781261229523,0.0011309068513185704,0.0014558744099109526
959.2458504273008,0.027867413269385924,0.010196860162801247,0.017670553106584677
981.319809262398,0.004486471022115748,0.00020401437914946088,0.0042824566429662874
1012.37509284785,0.0022638506317888014,3.4854627730603705e-05,0.002228996004058198
1017.4786055465006,0.010400166228681139,0.00557676967910442,0.004823396549576718
1033.7369934218552,0.00979084656506632,0.0008314442013139985,0.008959402363752322
1035.3932360392632,0.007014765907447519,0.005851857391448601,0.0011629085159989181
1051.5218939561782,0.014547374757717309,0.0021011570911695604,0.012446217666547748
1055.5650654494557,0.006605947596976477,0.005384275786435928,0.0012216718105405495
1073.3420499673718,0.024489730655805377,0.01731632662662432,0.00717340402918106
1075.1363462641302,0.0178736379003663,1.112056614781705e-05,0.017862517334218484
1081.993838122397,0.016265867491819127,0.010218854096095662,0.006047013395723464
1088.608220382893,0.021673543674013987,0.002108341587417743,0.019565202086596244
1090.4482461772166,0.05271774673207376,1.8482642018446656e-05,0.05269926409005531
1090.8960090259804,0.019732495945142203,0.0025654305637220595,0.017167065381420144
1092.8992559960816,0.020091554643118296,0.007367065161491383,0.012724489481626914
1105.6334983776364,0.06792005839512417,0.013201944714719742,0.05471811368040443
1140.0854239844557,0.0836853656634684,0.07078187981621857,0.012903485847249825
1147.3718630864266,0.045706281560032466,0.022116467564961852,0.02358981399507061
1169.875219152412,0.04209566311760603,0.005377238411343785,0.03671842470626224
1185.6283020997728,0.007626091997522083,7.465353484201253e-05,0.00755143846268007
1214.002779987897,0.0062998627419974945,7.29859570685074e-07,0.006299132882426809
1219.157655438827,0.020271926362602784,0.005981671248611461,0.014290255113991323
1226.024138620672,0.022941152625171383,0.015034319044747372,0.007906833580424011
1243.9238426408915,0.00947652327413536,0.0027894116807976378,0.0066871115933377235
1250.705041737981,0.0023090408724406345,3.649265321330736e-08,0.002309004379787421
1256.6120084193901,0.0028591813566253618,0.0005602181375329252,0.0022989632190924367
1273.6347809680933,0.0028691145111589354,0.00035105794226068365,0.0025180565688982517
1280.10267701095,0.006010458403777168,0.0006161629120847147,0.005394295491692453
1285.3521673874086,0.0022240160517462484,1.1177174369056087e-07,0.0022239042800025577
1302.3670939001586,0.010270083762264123,0.0006591848867891431,0.00961089887547498
1306.0214175421142,0.0037119845393445137,0.0023662845436197752,0.0013456999957247385
1317.4888604067419,0.03913739316278994,0.001276384420949457,0.037861008741840486
1322.1735590261462,0.0033039425135350177,0.0003591467084904152,0.0029447958050446026
1325.0646701607864,0.0015519793914097286,4.7220620391139745e-05,0.001504758771018589
1327.8000608233035,0.10259009936792128,5.4454476222425105e-05,0.10253564489169885
1332.9722371240525,0.04560843381762718,9.069616258303461e-05,0.045517737655044146
1335.1794090203784,0.010494981919623031,0.0008655561502904921,0.009629425769332539
1336.267150677614,0.0004894162926172312,3.508069659574845e-05,0.00045433559602148276
1337.200167268274,0.009923333796232375,2.9081209105617805e-05,0.009894252587126756
1345.6351434658375,0.004662947581234926,0.0016907185882829908,0.0029722289929519355
1370.0525198618209,0.0022954631715888787,0.0006219173722307553,0.0016735457993581236
1375.2093211637984,0.0014749799951782098,7.520943582980906e-05,0.0013997705593484008
1390.884588005404,0.005100377518135924,0.0003106413687403569,0.004789736149395566
1406.9949677318907,0.0012658413622061244,0.0003711495721539678,0.0008946917900521567
1410.2501412365075,0.004860763801618724,0.0004531382839323063,0.004407625517686418
1413.0861098318053,0.0028499101003310067,0.0017477850857850728,0.001102125014545934
1413.5690800598807,0.0015467124900994966,0.00021321234717615393,0.0013335001429233427
1418.6830360271065,0.00867871446500209,0.000941458614621705,0.007737255850380385
1419.9897094889109,0.0067074140654542575,0.00011387762763994598,0.006593536437814311
1421.6770756593191,0.006851896624618489,0.0003112463989129596,0.00654065022570553
1456.9246549731927,0.004973661312008715,0.0015962289326696983,0.003377432379339016
1480.3068371761208,0.00041685682005056755,9.56750642272327e-06,0.00040728931362784426
1481.741051202318,0.00714883776145545,0.00047123346446957526,0.0066776042969858744
1482.332753872185,0.024860369125760416,0.0023587681028746483,0.02250160102288577
1482.9500768070516,0.019751598717068206,0.0016391882543983763,0.01811241046266983
1483.8413138097758,0.044505918471251515,6.926176771762869e-07,0.04450522585357434
1485.651642301043,0.11871286627740066,0.00308691890283686,0.1156259473745638
1487.8022746102215,0.07625322719736549,0.008497669554296285,0.0677555576430692
1490.573027424766,0.0023489391540299264,2.1236033447397973e-05,0.0023277031205825283
1492.4578377574935,0.01019902053013828,0.00020493854570257923,0.009994081984435702
1493.7286805352599,0.0275041632909833,1.313714898848509e-07,0.027504031919493417
1493.7643160399157,0.02761799252003982,1.4193680379544824e-06,0.027616573152001868
1497.829780962445,0.007480363669803484,4.343778580566235e-05,0.007436925883997822
1500.588494728922,0.006871694425850326,8.236636619832724e-06,0.006863457789230493
1504.2863187540186,0.0011926950706045143,0.0002082126666295545,0.0009844824039749599
1505.7901840221616,0.0015525431203177093,4.628169365775399e-05,0.0015062614266599553
1507.2820409617475,0.004168547164395666,2.231648615007703e-07,0.004168323999534165
1513.2307934581054,0.01422567697418826,3.0051105433971538e-05,0.014195625868754287
3003.579915174164,0.3983082416941589,0.3090703897337567,0.08923785196040218
3017.9654136869995,0.008056545549184734,0.001991802943037972,0.006064742606146762
3021.5319739816605,0.020752200873847666,0.013970162452990036,0.006782038420857631
3022.764022800326,1.4571971528940697,1.4240767834454995,0.03312036944857019
3023.5581505108034,0.8836302245881515,0.8571411638579409,0.02648906073021062
3023.9419151732586,0.6077072126149057,0.5469082511892875,0.06079896142561812
3028.510814424084,0.023528159018087066,0.01253765481075775,0.010990504207329319
3030.0185770109247,0.2390458318261957,0.15360533985406247,0.08544049197213324
3031.9024222385156,0.6559133605173666,0.5176659879738318,0.13824737254353486
3035.3074993650257,0.26912053394964885,0.008914641711033015,0.26020589223861584
3036.667610124121,0.5220291308745526,0.4084067403066927,0.11362239056785992
3040.4360701394075,0.34303483924532485,0.29135606709433537,0.05167877215098948
3040.457073588357,1.255857772927268,1.2169230914235012,0.038934681503766715
3042.8970416421494,0.6490539015652702,0.0025521716714677774,0.6465017298938024
3046.5560851045625,0.5049658367855473,0.2990263103342471,0.20593952645130023
3047.5684954270187,0.5532065856850108,0.05629335971854344,0.49691322596646736
3048.276431322679,0.0339030853959338,0.0011937962801275579,0.03270928911580624
3049.912759099628,0.9341534301798337,0.9259422875516082,0.008211142628225386
3050.2618869998655,1.0280195320916279,1.0177049091886954,0.010314622902932585
3052.3521318244525,0.06974105474154957,0.0005157826742740223,0.06922527206727555
3059.7733117374564,0.09748897190548636,0.00020141428514332816,0.09728755762034304
3060.5779459084774,0.07679964887465762,0.002662079473717233,0.07413756940094039
3065.4228782744663,0.21760397597411635,0.08431729725939102,0.13328667871472533
3067.9778028386027,0.30652038213326366,0.03166839946388093,0.2748519826693827
3074.127086734446,0.061563519749770534,0.004791144455706411,0.05677237529406413
3080.0169717027165,0.07282350502048471,0.0005056589012888066,0.0723178461191959
3084.604701252302,0.04500029554427103,0.0018191002654365115,0.04318119527883452
3094.932017255534,0.00963313670645884,0.00022865407846022772,0.009404482627998612
3112.8427175755273,0.12913684059354663,2.6281147642837735e-07,0.12913657778207022
3113.3232055167186,0.1246750428418908,9.813969756467594e-07,0.12467406144491516
3119.8460412641352,0.11519750183267188,0.06673150473600489,0.048465997096666984
3120.965578207241,0.4127397992362299,0.06200340952592676,0.35073638971030313
3121.5079680494646,0.4220280477903258,0.06647877316357965,0.3555492746267462
3880.8943733192928,0.5746157681861767,0.3361007120195035,0.23851505616667318
