frequency_cm1,total_intensity,isotropic_intensity,anisotropic_intensity
0.858337725451635,0.0,0.0,0.0
0.8046332625610793,0.0,0.0,0.0
3.908571700593555e-05,0.0,0.0,0.0
2.553729921186146e-06,0.0,0.0,0.0
1.4207116176463848e-05,0.0,0.0,0.0
2.3372719748101094,0.0,0.0,0.0
5.344290475288521,0.00011447493541512537,2.734117618711632e-08,0.00011444759423893825
8.751525875249698,0.0002616223151809443,1.8410335257059374e-08,0.00026160390484568726
15.111925589967692,0.0011037895871248357,3.965454844726037e-09,0.001103785621669991
18.71063791336834,0.00039691166743770147,2.2743474175888494e-10,0.0003969114400029597
24.488747880086674,0.00033496736828611057,1.1181124318949565e-07,0.00033485555704292107
29.54065919074441,5.424394354234692e-05,1.4111446298295283e-08,5.4229832096048625e-05
34.78148611212571,0.0005521276524738189,3.2353985951326792e-09,0.0005521244170752238
47.130145851774955,0.0007531341941191307,1.3476661911415001e-06,0.0007517865279279892
47.919346761242174,0.00024203516945640367,9.826376159872e-06,0.00023220879329653168
53.41662677903247,5.324405175522643e-05,1.3054753928528787e-08,5.3230997001297896e-05
67.9983171240756,0.00016716176112129892,2.792119740125731e-07,0.00016688254914728635
73.98661257209498,0.0001659592841198107,9.239113120517565e-09,0.00016595004500669018
77.7935287658826,0.00016086758551917186,0.00011576266704846356,4.5104918470708296e-05
90.50558755069696,0.00035064551529993604,3.035071654091801e-06,0.0003476104436458442
92.81095333502677,0.01342831955999476,0.00826368760756994,0.0051646319524248216
96.31882080968275,1.40922041470585e-05,2.074099323306446e-06,1.2018104823752054e-05
113.180721750865,0.00012953804883748826,1.2584392994316762e-07,0.0001294122049075451
114.69113678438262,0.0004714847221654701,0.00023978960252251232,0.0002316951196429578
118.36849352614173,2.0796234912710244e-05,2.6012493122133955e-06,1.819498560049685e-05
134.64123308025978,0.0001345139484032642,2.7615806460142693e-08,0.00013448633259680406
138.74394309837206,2.5022056444543564e-05,8.601469874586907e-11,2.502197042984482e-05
152.96483722990968,8.508313853640892e-05,6.516554731814474e-06,7.856658380459445e-05
154.3918083038569,0.0001768386673640016,1.584479849075841e-05,0.0001609938688732432
156.51031867858538,3.0565033650343083e-06,8.678992549250842e-08,2.9697134395418e-06
168.0548452865212,3.303278584893446e-05,2.1423014362341356e-11,3.30327644259201e-05
169.96184855474002,1.1110447680439019e-05,3.5761922558040706e-08,1.1074685757880978e-05
177.40656708776234,6.449797008980412e-06,2.1124898135738435e-08,6.428672110844673e-06
178.7768290970611,3.728664594960639e-07,1.3577751205928004e-09,3.715086843754711e-07
185.2754163264679,0.0001514539137474637,3.679707748810541e-05,0.00011465683625935829
200.90792577913732,0.00010187515881188421,3.2883716405881385e-05,6.899144240600283e-05
246.2062616483985,2.1264276304680167e-05,2.2971196873917154e-07,2.1034564335940997e-05
248.7421677617592,0.00020257824220710542,7.842441322611762e-05,0.0001241538289809878
271.7910121159867,0.006171894581505332,0.004098511682148889,0.0020733828993564434
302.2134260731377,0.001050291692109193,0.0004779106973132356,0.0005723809947959574
341.81570794052055,0.0005550066893708349,0.00010291396093537054,0.00045209272843546437
363.4816217515407,0.00013375814946900658,8.625202279305252e-05,4.750612667595405e-05
396.9728974772097,0.00019259248889671248,0.0001818929736367543,1.0699515259958187e-05
428.18705370339507,0.002788468178697939,0.0017353224722829828,0.0010531457064149562
445.77391034852343,0.0001707408673716159,2.8669172029677444e-06,0.00016787395016864816
480.3068710883414,0.00038834932859447185,0.00017864400711415084,0.00020970532148032101
488.7610162541471,8.255687931541338e-05,1.489998705561328e-05,6.76568922598001e-05
514.0605447542832,0.0006468055891209082,0.00023587694497483765,0.00041092864414607054
521.3935730526538,0.00581993892070147,2.8028127541051214e-06,0.005817136107947365
521.7288698859892,0.0002504049345066164,8.832927464800643e-05,0.00016207565985860994
531.3103554165735,0.00022122095309577984,1.714514824116792e-05,0.00020407580485461193
639.7637071276785,0.013807757233724715,0.007275248310749715,0.0065325089229750005
652.5675117483794,0.0034577524612780775,8.100401803117573e-06,0.0034496520594749598
727.8275658338296,4.5935762004418006e-05,1.7794577192385964e-05,2.8141184812032045e-05
727.9338899612567,6.033832442195276e-05,4.804042008322066e-07,5.9857920221120556e-05
728.4656026179474,5.1370152547051725e-06,1.233560679402985e-07,5.013659186764874e-06
729.4362910995668,6.049296291071323e-05,1.9457249375767856e-07,6.029839041695555e-05
731.2611276607025,1.806087140701125e-05,5.08190546653457e-07,1.7552680860357793e-05
734.6949798473308,3.2868628434880677e-05,1.7261670404535098e-10,3.286845581817663e-05
740.5876154826319,4.876586141529157e-05,6.891465859307018e-09,4.875896994943226e-05
749.7232499485074,4.07585350464702e-05,2.488869972835728e-07,4.050964804918663e-05
762.798503579674,8.006668039298249e-05,5.130569011082742e-09,8.00615498239714e-05
780.1327945247655,3.866219156342481e-05,6.481821187711808e-08,3.859737335154769e-05
801.0724021588557,0.00014243881004867313,3.536200641544093e-08,0.00014240344804225768
825.2196365613256,2.8457215052317976e-05,1.138756658165209e-06,2.7318458394152767e-05
852.4471589520991,0.0001854306665784877,8.354416367571464e-07,0.00018459522494173057
881.7325826564562,2.0201056793278388e-05,3.1781519098561744e-06,1.7022904883422215e-05
892.5599702598273,0.04948774971544261,0.04250828097159614,0.006979468743846473
908.344784523377,0.03307384775707016,0.020135143602758487,0.012938704154311675
912.2184959016835,0.00018928017420919596,6.706183736856121e-06,0.00018257399047233984
942.9767589321413,2.540662094464095e-05,4.519834010659853e-07,2.4954637543574965e-05
973.1216154750256,0.00011802271727799136,2.502655397550373e-07,0.00011777245173823632
1000.7548572118566,0.0004964374633122159,0.0003331448454551088,0.00016329261785710713
1001.921114837228,5.483227660780211e-05,5.0321556478064885e-06,4.9800120959995625e-05
1002.7207148257863,0.00010724859373028754,1.7478228311424419e-06,0.0001055007708991451
1014.2424561714182,0.00048395511647608393,6.884596217375962e-05,0.0004151091543023243
1021.0609497091065,0.002901079001587606,0.0018161352321787044,0.0010849437694089017
1028.301089490195,6.151994675321134e-05,1.776095580371105e-06,5.974385117284024e-05
1032.321502434182,0.001917742446766881,0.0005764290977939209,0.0013413133489729601
1043.6958733020965,0.0008788333035607461,1.3828159303800639e-05,0.0008650051442569454
1050.7797259356191,6.813639578933766e-05,1.8914275360105508e-05,4.9222120429232156e-05
1051.8211239799775,0.0020736750362679328,0.0015972110695687755,0.0004764639666991571
1063.1500142405869,0.003556720031498186,0.0015777159819091655,0.0019790040495890207
1066.8341504379032,0.0004478274111130187,2.7471525335030577e-06,0.00044508025857951564
1071.2246987229773,0.008024843819041757,4.5113649846134024e-05,0.007979730169195622
1080.5967170526726,0.01162138743031627,0.0044468694343854625,0.007174517995930808
1083.547555342123,0.008967998279073575,0.0002904475511597891,0.008677550727913786
1088.1946298736211,0.17446456310474326,2.5875352751079986e-05,0.17443868775199217
1089.250783048272,0.0005114321172662226,0.00018059933616150636,0.00033083278110471626
1090.829444820287,0.0019356920543205018,0.0010534467669733219,0.0008822452873471799
1091.4200643426693,0.004494342305451284,0.0003937634814445506,0.004100578824006733
1091.8827914649212,0.014840423918168451,0.0007270628057648091,0.014113361112403642
1093.1656900547034,6.975401517101352e-05,3.9282741801673873e-05,3.0471273369339644e-05
1094.3218563676985,0.009468695000162135,0.0015042578979691586,0.007964437102192976
1113.9809575645438,0.0017991435469211592,0.001464585156821746,0.0003345583900994132
1138.074574784873,0.08930918602697108,0.042754482490299894,0.04655470353667119
1144.5893015490735,0.004845818843744566,1.7620466457969937e-05,0.004828198377286597
1157.4079656550905,0.20533218450472618,0.11184083433566679,0.09349135016905938
1165.2573952589528,0.22098308598570465,0.13241549616586334,0.08856758981984131
1202.92734709815,0.022973532271916588,1.352223042254685e-08,0.022973518749686166
1211.4312260021197,0.0012035638219142092,4.813332092604019e-07,0.0012030824887049488
1212.1124373765767,0.0005547872877504755,7.721466411154964e-05,0.0004775726236389258
1224.8280476305822,0.0006574922529777168,7.937586925018227e-07,0.0006566984942852149
1227.6499000277618,0.0004835638545583604,6.515505649261211e-06,0.0004770483489090992
1240.2569989211022,0.000366518625294624,1.616905216498491e-07,0.00036635693477297417
1243.424985031343,0.0003918627620587571,6.945093634130902e-06,0.0003849176684246262
1256.0761000894104,0.0006174595861769333,1.1015025191137778e-07,0.0006173494359250219
1258.6062524620029,0.00040792394198566,4.181665185126652e-06,0.00040374227680053335
1271.488679155255,0.0001725602702851367,2.2666194961140324e-08,0.00017253760409017557
1273.178223981129,0.0006227960315653575,4.056776314610785e-06,0.0006187392552507467
1285.9401745480811,0.0012276919774161402,1.6347813078984726e-08,0.0012276756296030612
1287.167908543095,0.0010455018391721184,5.789339743639228e-06,0.0010397124994284792
1298.9179202719388,0.00015850105742940785,1.3088680148407807e-08,0.00015848796874925943
1301.160606861394,0.0011175339641928278,1.4368560895013329e-05,0.0011031654032978146
1310.0286438614003,0.00414368095476696,1.6145894231061572e-08,0.004143664808872729
1315.877841534194,0.0017919632610411472,4.693460743990423e-05,0.001745028653601243
1319.187731202094,0.0008875439480902601,1.8740782598660045e-07,0.0008873565402642735
1323.3942870969363,0.2806255035664402,3.9735612230102636e-10,0.2806255031690841
1325.7671325970489,0.002068244675875796,1.1356025245795423e-06,0.0020671090733512167
1326.0920085094353,0.000697167864751354,4.5862532420448096e-07,0.0006967092394271495
1329.4943532721556,0.024685711638084386,1.0138742617225417e-07,0.024685610250658213
1331.021941111383,0.00038257867254960803,9.72121712484167e-06,0.00037285745542476635
1331.4030685993885,0.0007861820695728004,5.2469861438632865e-05,0.0007337122081341675
1333.6678188288904,9.526439256261315e-05,2.8330615641012517e-09,9.526155950104906e-05
1334.9827675304323,0.0052081662258246396,1.6335781522065562e-08,0.005208149890043118
1336.9648036289236,0.0018167381764218704,7.949184943161598e-09,0.0018167302272369273
1337.7311068620252,2.2884252131051033e-05,9.174340613728225e-07,2.196681806967821e-05
1338.8448776410446,3.7455917126663675e-05,8.542145950188507e-08,3.737049566716179e-05
1339.0640411892737,0.0011153028732069144,1.3305548845283723e-07,0.0011151698177184616
1347.082290089155,0.002053244232808241,2.9292856502612425e-05,0.0020239513763056285
1362.2786357995437,0.0007779445624972053,0.00019265389634313523,0.0005852906661540701
1376.546403654902,0.001907323872751659,3.5598775741133853e-06,0.0019037639951775456
1389.6190015805835,0.00048782842231938307,0.00018317662964451378,0.0003046517926748693
1400.4095642616335,0.0013362271609572577,4.015745172729068e-05,0.001296069709229967
1408.910176341055,0.00029419620898201815,4.021249830335219e-06,0.0002901749591516829
1412.6466570866744,0.0013576283476128411,0.0008507401925247296,0.0005068881550881116
1415.752605993672,0.0015483281334467643,4.772215787931471e-06,0.0015435559176588329
1419.5606375856385,0.011159054706560511,2.403316932317828e-05,0.011135021537237333
1419.9331473710527,0.009839825977311303,5.2507423360965565e-06,0.009834575234975206
1421.0434990557465,8.849578568578064e-05,6.0481687364079235e-05,2.8014098321701407e-05
1421.7120649552871,0.0005111711081113619,5.729677602633162e-06,0.0005054414305087287
1422.1896077240601,0.001163197370174013,4.26402757655094e-05,0.0011205570944085035
1435.3558816967543,0.004337975206824377,0.0006005186567319954,0.003737456550092382
1457.6400820762522,0.01815645777242919,4.086079589471968e-05,0.018115596976534473
1479.7455897358636,4.070278315238653e-05,5.394544460634326e-06,3.530823869175221e-05
1479.817005794262,0.00042815322560056337,4.337613875968851e-06,0.0004238156117245945
1480.5298058800147,0.002886836910301551,1.1045380903103213e-05,0.0028757915293984478
1480.7229839881438,0.00046383466944396147,6.958190224783994e-05,0.0003942527671961215
1481.7622663424547,0.0003557604349044595,2.4336886905143977e-05,0.00033142354799931554
1482.1663102305142,0.007389361919988742,0.00048590108101469897,0.006903460838974043
1483.2409419613816,0.019484773116725994,0.00012825203620959875,0.019356521080516394
1483.8974406074042,0.00128700997798526,0.00031624007476322704,0.0009707699032220329
1484.8443491091593,0.0031606470019581554,0.0006138588054201365,0.002546788196538019
1485.2270545632703,0.4048240706883926,0.037014891026928474,0.36780917966146415
1486.5005355569783,0.06044877729404409,0.002934938329070323,0.057513838964973765
1488.6586944600326,0.0011864559225979183,5.38631550969682e-06,0.0011810696070882216
1491.0304463975347,0.010357960011869307,0.00028545729498447714,0.01007250271688483
1493.5607361521734,0.00027533371192550775,2.4745354240526016e-05,0.0002505883576849817
1493.754406202787,0.02703569427026195,2.1816447393640254e-07,0.027035476105788013
1496.1347306013781,0.0045879495339430035,0.00010162379228487502,0.004486325741658128
1498.6793666925716,0.0001887122596785277,9.48188229407752e-05,9.389343673775251e-05
1501.0723097154491,0.0021069462286084483,3.56876015638661e-05,0.0020712586270445824
1503.1891470739188,0.0005809242367216259,0.00014446609676897957,0.0004364581399526464
1504.9112265839376,0.0010775038534760286,1.554266068146948e-05,0.0010619611927945591
1506.046120743954,0.001142634153874439,0.00011363809388266457,0.0010289960599917745
1506.5864154692142,0.0004024651635568037,2.0178767721722486e-08,0.000402444984789082
1839.572453067188,0.05006187338521078,0.030421940223094267,0.019639933162116513
3020.8678935963253,0.003473799986044434,0.0030789734999305493,0.0003948264861138847
3020.974933736626,2.8312610345110423e-05,2.256064161447031e-05,5.751968730640111e-06
3021.544445145574,0.05298656841023843,0.04810852907842872,0.004878039331809711
3021.8409698788755,0.019375415713759316,0.01831771517686415,0.0010577005368951637
3022.36990129135,0.0283677974787199,0.026913072614202012,0.0014547248645178897
3022.517461289443,0.10683010612697835,0.09857159061457484,0.008258515512403523
3023.1889191569944,0.0015331941298003515,0.001088554089063586,0.0004446400407367656
3024.0367581005503,0.14375334472042442,0.1374758148258348,0.006277529894589637
3024.185890228195,0.0808078479972975,0.06978157075749973,0.011026277239797764
3024.8641813314157,2.1728065878448537,2.140558189604185,0.032248398240668406
3025.6661483933904,6.250611659017825,6.164969809635461,0.08564184938236434
3026.415702072497,0.057284574536873,0.05362999160670865,0.0036545829301643496
3028.8561703182527,0.06398392909459835,0.059047341468938856,0.004936587625659498
3031.388465647907,0.030096328598288213,0.027584905864100773,0.00251142273418744
3033.952262005407,0.04284864067090104,0.03819130003756854,0.004657340633332499
3036.3679962660162,0.053307105906958537,0.04947340125123526,0.0038337046557232737
3038.4255227823573,0.053781626973820024,0.04817101190565081,0.005610615068169211
3040.0628616673835,0.032569291663093164,0.026965770426697015,0.00560352123639615
3040.997433762604,0.3789675014788768,0.3446173721757203,0.03435012930315649
3042.51362876514,1.9213126527780906,0.00019878467504829805,1.9211138681030424
3042.9736862705536,0.012687874222467165,5.372531545642021e-05,0.012634148907010744
3043.612569613375,0.9695800055883743,8.352037101632804e-05,0.969496485217358
3044.45230302018,0.11351871551335044,3.3144977236913956e-05,0.11348557053611352
3045.6801792764795,0.28658050409186486,4.859837191483653e-05,0.28653190571995
3047.36543833132,0.014677444974212585,6.737228592163378e-06,0.014670707745620421
3049.5853557886753,0.11128742871489185,0.00018017807107572473,0.11110725064381613
3049.7666922671997,0.9141619253898631,0.9068437225364648,0.00731820285339829
3052.249257937483,0.0003953777423109096,1.0839563612763569e-05,0.00038453817869814604
3055.356118477108,0.05079385226819582,6.547014331005625e-05,0.050728382124885764
3059.3211760755694,0.004746156135464668,0.0005785017498726638,0.004167654385592004
3060.446340658367,0.9813164527957458,0.9391967604933076,0.04211969230243815
3063.545316520176,0.04260748695980882,8.767174019867324e-05,0.04251981521961015
3067.92924279299,0.01009127439606195,2.132563861631736e-05,0.010069948757445633
3069.3842646215962,0.04736922596838111,0.04171317933372698,0.005656046634654129
3072.133766752177,0.048854948551497926,3.143645930150621e-06,0.04885180490556777
3076.113630386966,0.009309095254516678,8.568633290402617e-06,0.009300526621226275
3079.8220825296994,0.04716812979216597,9.300785160373916e-06,0.0471588290070056
3083.2593624154474,0.0021309427001192168,3.7410036872482067e-06,0.0021272016964319685
3086.2709140533943,0.03287995638711845,1.8379348147031686e-05,0.03286157703897142
3088.7794414166738,0.0023005236683859335,1.9727987226341704e-05,0.002280795681159592
3090.179455794187,0.021037938709662012,0.00021677099521147958,0.02082116771445053
3092.850253639053,0.22034699021964654,0.00024158643711121006,0.22010540378253535
3112.338247424357,0.003397378787256406,1.2386921405630898e-08,0.003397366400335
3112.7018386918326,0.1285546088092608,1.1232506777298576e-05,0.12854337630248353
3121.004585389719,0.41036022503436365,0.0631025736420585,0.34725765139230513
3798.650540648615,0.4906592641675016,0.30495736618887886,0.18570189797862272
