frequency_cm1,total_intensity,isotropic_intensity,anisotropic_intensity
2.0710720974287318,0.0,0.0,0.0
1.2789066125946675,0.0,0.0,0.0
2.779779924148162e-05,0.0,0.0,0.0
2.503461895140067e-05,0.0,0.0,0.0
8.950791068075819e-06,0.0,0.0,0.0
0.26332356302264787,0.0,0.0,0.0
21.621358351251363,0.003499901132947799,1.306329472285961e-05,0.0034868378382249396
37.440746105856384,0.0010458592029107985,1.278562419038553e-06,0.00104458064049176
64.4859864707246,0.0014198571760684858,0.0002352891890082277,0.001184567987060258
88.08088953271887,0.000517217872005632,0.0001794106346245223,0.00033780723738110975
101.90486677546231,0.0013052980117234285,2.7822496131589352e-05,0.0012774755155918391
114.02017630663681,0.0015470533182318671,3.2605286211572364e-07,0.0015467272653697515
142.46411787614778,0.004550725817761279,0.0007038619667313979,0.003846863851029881
155.01827562544278,0.0022810342693692187,0.0001603286582958041,0.0021207056110734146
167.04574847427241,0.0023728832958350545,0.00026859052126562,0.0021042927745694344
177.1710141957314,0.003230786378187637,0.001447498096164558,0.0017832882820230786
212.92972946718353,0.004606125078522072,0.002644718042433318,0.001961407036088754
227.26126267184333,0.004623107222520662,0.00011192861441154566,0.004511178608109116
266.4352684880991,0.015753221504428157,0.014299511955519612,0.0014537095489085463
280.5085919590868,0.011157441728710691,0.010278462980719986,0.0008789787479907046
286.13481602674506,0.01597584781594549,0.015260610052280589,0.0007152377636649002
323.16697976431107,0.002633897292378988,0.0017298286303888504,0.0009040686619901375
349.39381240796735,0.004040041860345083,0.002544349035543095,0.001495692824801988
380.410476431271,0.015282860636796026,0.01016438843622782,0.005118472200568207
396.7355875529717,0.035019070654684833,0.030130030281171883,0.004889040373512947
421.039552859184,0.0040893419641098465,0.000854619702850553,0.0032347222612592935
471.11019897805625,0.0020138437447970864,0.0013015936369438449,0.0007122501078532417
495.9474894098559,0.005198428209401184,0.004013686412548398,0.001184741796852786
565.9335519827359,0.047609100278922394,0.025676290410046425,0.02193280986887597
649.5699461295499,0.023350414951240468,0.0023311867738920965,0.021019228177348373
702.7605168230241,0.05514011285191756,0.028183170295409884,0.026956942556507678
726.8504492936763,0.007303329510525465,0.0028883114399320853,0.004415018070593379
733.3942080537257,0.004953586420087668,0.003968839062976422,0.0009847473571112464
771.265698646847,0.027780620391255707,0.0024687237850623154,0.02531189660619339
805.3413816654474,0.046558593274540636,0.038603232927468326,0.007955360347072312
836.9637731603956,0.04963563547571161,0.03536274001841646,0.014272895457295154
847.2173025444383,0.003519019888519066,0.0015772243551021431,0.001941795533416923
863.586950107704,0.014610883514186063,0.008812017572210482,0.005798865941975581
890.0277682082537,0.015753639190904382,0.00999634730825568,0.005757291882648704
921.0965794858053,0.027539570365811908,0.003475558403650607,0.024064011962161302
945.7639387625222,0.02717604827145335,0.0006012535065897709,0.02657479476486358
973.3739822234231,0.019964656323734207,0.006258544785677151,0.013706111538057055
1000.8912222207344,0.006222446255954587,0.0009817458683390428,0.005240700387615544
1015.1652002925804,0.004812488898778899,0.0005487313338434477,0.004263757564935451
1036.4828168370918,0.008059108954712742,0.003314947452636772,0.004744161502075969
1063.3807734652567,0.004090793202636778,0.00035988348908027104,0.0037309097135565066
1066.2371807616203,0.004988762503185,0.0018876338526172,0.0031011286505678
1085.2297203464316,0.006606494805648375,0.004558406527834588,0.0020480882778137876
1104.081551023333,0.011604809102662697,2.316351797074106e-06,0.011602492750865622
1107.030196079489,0.022514128050955724,0.0016752085831541225,0.0208389194678016
1114.557474328266,0.032411151145978805,0.0004167323240843219,0.03199441882189448
1123.4809468738451,0.03336893408978109,0.011391588628344657,0.021977345461436433
1136.7854140817028,0.020046900846318418,0.011012301932361926,0.00903459891395649
1154.264575018294,0.011808943993286315,0.0020325170513994482,0.009776426941886867
1184.228388183515,0.029825127727416807,0.021338610807586016,0.008486516919830793
1201.3957478146053,0.015621634382903885,0.005323064601347541,0.010298569781556344
1215.0171910422914,0.04582858174330572,0.022325663560519647,0.023502918182786076
1227.2929785233812,0.012759693112856399,1.7775064815107588e-05,0.012741918048041291
1249.9810594585958,0.026154976580841593,0.018507061028318388,0.007647915552523204
1256.1375138829862,0.01747731471446476,0.002376363760441602,0.015100950954023157
1295.936650991384,0.005535194073695383,0.0020227492375396983,0.0035124448361556846
1307.208871659827,0.01268195881383592,0.0012508598117204673,0.011431099002115454
1312.67196785991,0.02371631139943511,0.017933418034686035,0.0057828933647490754
1324.2896602772848,0.008391174636298347,4.734090924301687e-05,0.00834383372705533
1325.6487378301424,0.01207062826692953,0.00036673153862782124,0.011703896728301709
1331.51213201917,0.023851228463327823,0.002302191632778618,0.021549036830549203
1361.358533223789,0.06519529408891736,0.0030208126060049874,0.062174481482912373
1366.7159226813421,0.015361401614185586,0.01188417865168667,0.003477222962498916
1373.257072736796,0.00570001963112357,0.003978919463274497,0.0017211001678490731
1378.9985853425037,0.005719594079893717,0.00022334246006176968,0.005496251619831948
1381.8657999758368,0.0018990419097787462,0.00036095920395986717,0.0015380827058188791
1391.69157062087,0.009215692669177798,0.0010617493570445997,0.008153943312133198
1401.0413555029202,0.010990703514371926,0.0018605449885449946,0.009130158525826932
1404.383548351251,0.0052396614733068395,5.890182347344732e-05,0.005180759649833392
1427.205636312179,0.0016610248654380041,0.00011115556618529802,0.001549869299252706
1477.8116907994406,0.050826924348472,0.0008260010611145079,0.05000092328735749
1481.9585962185063,0.008059043413907152,0.0004397647255353748,0.007619278688371776
1483.9469080956057,0.012612010496107214,0.00015862169166229852,0.012453388804444916
1488.6776272960262,0.01618624137075941,0.00044329602141326936,0.01574294534934614
1492.708472757905,0.03904778262926144,0.000579998887538,0.03846778374172344
1493.651162946597,0.030756215770739705,0.0013280920673053671,0.02942812370343434
1497.010658270358,0.011952505581975977,0.00017618748029448838,0.011776318101681489
1499.2700171488586,0.018187785164474134,0.002695288766363392,0.01549249639811074
1516.2791356528257,0.007084516965964851,1.5544050481437416e-05,0.007068972915483414
1829.3742320567171,0.030575807616809298,0.021503604332052027,0.00907220328475727
3025.385969439942,0.27434483867164405,0.18869915140158366,0.08564568727006042
3030.6152641217127,0.593046913815536,0.5145686315439655,0.07847828227157053
3038.920034110997,0.8515742915299128,0.7547621977131411,0.09681209381677167
3042.5001931539045,0.3037666796391003,0.2342418625870781,0.0695248170520222
3043.582477830989,0.4887105879420527,0.42155128360609107,0.06715930433596161
3058.8913976524977,0.09673103491378132,0.00025631997308352735,0.0964747149406978
3065.3897747585333,0.3406924933115796,0.13553247313803451,0.2051600201735451
3073.655383698075,0.3472892564988239,0.06722176196273344,0.2800674945360905
3076.7248052038053,0.2142468505585092,0.058491119728441655,0.15575573083006755
3081.911795188563,0.6027895215197425,0.3984689276305471,0.20432059388919538
3087.6287350711455,0.16960998160592605,0.0696357224614394,0.09997425914448667
3089.7761270108217,0.8079859705081808,0.6190946065337343,0.1888913639744465
3095.127493813933,0.8692239809058722,0.4870530401141299,0.3821709407917423
3101.933489912795,0.6516024934211814,0.4239621022836884,0.227640391137493
3109.8892114368564,0.3878212464307488,0.2342544951982608,0.153566751232488
3122.259446506398,0.09604196359089173,0.042954063529754206,0.053087900061137526
3127.986238605216,0.2590380580056434,0.024001941506518507,0.23503611649912487
3136.474965617396,0.18360772716213022,0.047518537837614776,0.13608918932451544
3144.658598484833,0.11157541675693762,0.09234768097564014,0.01922773578129748
3152.694362852343,0.2508200284701316,0.19027100272336736,0.0605490257467642
