frequency_cm1,total_intensity,isotropic_intensity,anisotropic_intensity
2.2482674707154153e-05,0.0,0.0,0.0
1.543434095346835e-05,0.0,0.0,0.0
2.2245471198799584e-05,0.0,0.0,0.0
0.7473284132921589,0.0,0.0,0.0
0.7635655560879273,0.0,0.0,0.0
3.818267355693842,0.0,0.0,0.0
8.262841530213764,0.0007336043027621232,3.545343514059275e-13,0.0007336043024075889
12.357290016896187,0.00011169346981063932,1.967340628279081e-07,0.00011149673574781141
20.38209114143384,0.0010429485705110355,7.352501646212247e-15,0.001042948570503683
25.60883541388178,3.994301329018242e-05,1.2049172578390311e-14,3.9943013278133245e-05
33.36492664684523,0.0006925701301403404,9.22227609369475e-09,0.0006925609078642467
36.984318309694686,3.3620809304180884e-07,9.509966197296534e-13,3.3620714204518913e-07
52.06398969391278,3.002335350123846e-06,5.855978213252626e-13,3.0023347645260248e-06
61.20111152062944,0.0004793238384314558,2.6690068974101904e-12,0.0004793238357624489
63.87109106354299,4.818418719853041e-05,1.3564958202872529e-05,3.461922899565788e-05
74.6455714103987,2.597236930978958e-05,1.656253528957275e-12,2.5972367653536048e-05
82.78273016213309,1.457753649799642e-05,1.7614575978964423e-15,1.4577536496234963e-05
102.55673272607872,7.4113027245242615e-06,2.5206260972299617e-11,7.411277518263289e-06
103.19107375885744,0.00011766068794926892,2.1772592173867367e-06,0.00011548342873188218
110.8867040289805,1.4246437059283345e-07,3.1201601547860816e-11,1.4243316899128559e-07
113.29584013905685,0.017005173580866166,0.010328256726834226,0.00667691685403194
122.7773264066922,7.760117474095398e-05,1.448251601955197e-12,7.760117329270238e-05
130.66178217561327,2.064527741576304e-06,3.148245024363952e-11,2.06449625912606e-06
148.75987400835203,0.00039562803187595774,7.134751789343819e-11,0.00039562796052843984
150.053650417093,9.670005909509948e-05,1.0202776372340632e-08,9.668985631872714e-05
150.45884116357215,0.00039078537630111656,0.00033086541434430573,5.9919961956810845e-05
163.8928587807586,2.7171313012426535e-06,1.401808715041977e-13,2.717131161061782e-06
167.57186441105432,7.223896965219033e-06,5.609248677513981e-12,7.2238913559703555e-06
172.26915505563147,9.340566467726733e-05,1.7007480769895522e-12,9.340566297651926e-05
183.68100145966952,5.1253514252519405e-05,5.096352930442238e-13,5.125351374288411e-05
200.40771138159124,5.997792320629523e-06,2.9634923575876795e-08,5.968157397053646e-06
216.72723225957728,0.0001405495261165928,1.7789086348543217e-09,0.00014054774720795795
246.25161722525445,1.9393633196044326e-05,2.080146827093413e-12,1.93936311158975e-05
246.4811559972903,2.056702331287502e-05,2.390384529360634e-11,2.0566999409029725e-05
256.51149108545695,0.0008988530097665435,0.0005247952786678443,0.0003740577310986992
316.15940281026997,5.8940092234690105e-06,1.7941252691448576e-06,4.099883954324153e-06
321.82745274072204,0.008401043873089452,0.005599783250182173,0.0028012606229072777
371.28523662625327,0.0005317240373298926,0.00038891725430683223,0.00014280678302306028
392.9990694685005,3.014821301261775e-05,1.5335464054578508e-09,3.0146679466212294e-05
437.3860816363415,0.0001397372251530574,4.401593020086796e-08,0.00013969320922285655
463.5008410165717,0.004408029501479704,0.002512326312257997,0.0018957031892217076
482.22945217079626,0.0012828654560284698,0.0008007081151309398,0.00048215734089752997
497.43492954559014,0.00010720684425509917,2.2259732762737482e-08,0.00010718458452233643
535.5699301190791,0.0005427858710091639,7.566831746945821e-05,0.00046711755353970574
545.1774935485232,0.0007116457785736961,1.062244964479243e-07,0.0007115395540772481
728.1531582517327,8.49950043045453e-05,1.231477773776201e-11,8.499499198976756e-05
728.3913942431368,8.723499132785945e-05,3.297142100966392e-12,8.723498803071735e-05
730.8545214562996,1.9743980051356544e-06,2.052274349740268e-12,1.974395952861305e-06
731.0493939088025,3.0001374273825974e-06,1.7222442085594666e-12,3.0001357051383888e-06
741.4967258941867,7.463297598975119e-05,2.3136207928054274e-12,7.463297367613039e-05
741.6204048100601,0.00024554415570148745,6.26421448599111e-16,0.00024554415570086105
765.5542749574424,1.7721967135000893e-06,2.615960323779644e-13,1.772196451904057e-06
766.4615319745628,1.8873909464265518e-07,7.23254788675573e-12,1.8873186209476843e-07
804.8215144473023,0.0005426793386374392,2.55537337127432e-13,0.0005426793383819018
807.737271593075,0.00014239242711823518,8.714196890747322e-12,0.00014239241840403828
859.5752135060433,8.090128600168257e-05,3.7457168781746666e-13,8.090128562711089e-05
863.8718089794403,2.295270207300593e-06,3.57397470410651e-11,2.295234467553552e-06
908.3046449342348,0.03311760944456816,0.020376695779562377,0.012740913665005783
908.4078348416592,0.032854046913353786,0.020193540209732533,0.012660506703621253
924.3685020748766,7.207675661240191e-05,2.279148906252209e-11,7.207673382091285e-05
928.5960374355086,0.00037833009795537267,3.193343189865834e-10,0.0003783297786210537
990.1828104087845,0.00039737983310639025,9.348612058829536e-11,0.00039737973962026966
993.3982370288843,7.739560548934417e-05,9.914357648895723e-12,7.739559557498652e-05
1004.0285470684826,0.0025969538956294737,0.0009262502795431726,0.0016707036160863013
1010.2541557831153,0.0004600854634188536,1.8859513113100394e-06,0.00045819951210754355
1018.6326089754339,0.005356411233346179,0.002307537643561406,0.003048873589784773
1029.269221750207,0.00196950768547386,1.9026713247459545e-05,0.0019504809722264004
1044.4774950026408,0.007301815000075906,3.8590878512982536e-05,0.007263224121562923
1046.684070250367,1.0727688379031548e-05,5.817591648683245e-10,1.0727106619866679e-05
1048.2130352999973,6.838308584534566e-05,2.517067003619761e-09,6.838056877834203e-05
1052.4974972195375,0.004192706947792614,0.0036655297428727952,0.0005271772049198194
1054.8079892450767,0.003110047360077153,0.0014289666224702848,0.001681080737606868
1069.8516817689963,0.00017002898061950212,3.570288567336678e-05,0.00013432609494613533
1082.0428828415716,0.02811754657829536,0.01306573438688173,0.01505181219141363
1083.0629598312994,0.0679082040219268,3.0005276592478477e-06,0.06790520349426754
1085.64544405364,0.0136259516489638,0.0024908652913722676,0.011135086357591532
1090.465136082689,0.08825091202587597,1.1166943065732558e-05,0.08823974508281024
1091.3835171053036,0.002413135861900003,4.8898031502795556e-05,0.0023642378303972075
1091.5748886664658,0.0022070599941149843,0.00037694458064316906,0.0018301154134718154
1092.3048780882507,0.01244325583662537,0.006850833466911715,0.005592422369713655
1104.143927291557,0.012087543522089596,6.216789205547153e-07,0.012086921843169042
1128.5629677277716,0.0005046369715195059,0.00024304641993171545,0.0002615905515877905
1154.6612855783233,1.2118534544918727e-05,5.203020544057154e-06,6.9155140008615715e-06
1165.9275699750149,0.4029492165586348,0.23335835843632746,0.16959085812230731
1182.2461049692317,0.01512007291772587,2.3131656131417135e-06,0.015117759752112728
1184.579507544296,0.0023465988954611346,3.5455368613351226e-11,0.002346598860005766
1197.9198874136941,0.014967251492190498,8.534818839736559e-14,0.01496725149210515
1211.9972168161364,0.0007692627519475883,9.880423604420747e-13,0.000769262750959546
1216.2091475827865,0.004385188866170433,3.618891048671333e-11,0.004385188829981523
1229.3415604753898,0.0003589866390356336,2.0675716665265462e-08,0.0003589659633189683
1234.5788379879125,0.0006721104750937644,0.00010577619398907178,0.0005663342811046926
1244.523222650344,0.0005003973927629709,2.7437560474659136e-11,0.0005003973653254104
1247.8783374514546,0.002130394120222261,1.1693020845380765e-12,0.0021303941190529588
1265.865188319348,0.001680722836902402,2.6108801863627698e-08,0.0016806967281005384
1270.1315470462941,0.0017092073246604798,0.00028595137443163555,0.0014232559502288442
1277.7630552462956,0.003726960587951327,1.1342323470175929e-11,0.0037269605766090037
1279.382402537617,0.0004936086226796332,3.206465446607539e-13,0.0004936086223589867
1302.5384188155394,0.0006258834431526713,4.057927608053642e-10,0.0006258830373599105
1305.4576177476638,0.004985805429074643,2.928624719098002e-12,0.004985805426146019
1305.866983526033,0.0013185914314670704,0.0007540965748281396,0.0005644948566389308
1306.9534312866915,0.0010078466909231375,1.0652099169579293e-11,0.0010078466802710382
1316.7579033783688,0.11992020578034743,1.0207453039207715e-12,0.11992020577932669
1320.111950680043,2.9711366035508084e-05,2.747504335540685e-12,2.971136328800375e-05
1327.4682130196018,0.02777383634769268,5.4061028464132146e-12,0.027773836342286577
1328.2162343225302,0.08832991536545018,6.527082840204808e-14,0.08832991536538491
1328.6192008232279,0.026958872109907033,5.2033145597512834e-12,0.02695887210470372
1328.9069367157633,0.0008444019058421979,1.1885579043856689e-11,0.0008444018939566188
1336.7200320416362,0.0002737216941757183,2.1331441938217713e-11,0.0002737216728442764
1336.8509257713026,5.3736664725099713e-05,4.382250400278006e-12,5.373666034284931e-05
1337.9111273629378,0.002566554741011611,1.7998683481804833e-11,0.0025665547230129277
1338.3137964244356,0.0022846527849832614,4.476712271350171e-11,0.0022846527402161387
1341.0869561114669,0.0031944423784494563,6.306702949585092e-09,0.003194436071746507
1344.3860991031074,0.0009105184764570009,1.1875784612913895e-05,0.0008986426918440871
1375.5290383187212,3.72698759824643e-05,1.3341246020680573e-05,2.3928629961783725e-05
1379.9925899150523,0.000892933440877891,0.000828241426492114,6.469201438577699e-05
1400.4458375470228,0.004017520410706561,5.840070784042948e-07,0.0040169364036281565
1405.743147172317,0.0004229915767621416,0.0002905594609522513,0.00013243211580989025
1412.265337000338,0.00019227904753631525,4.3935487977989974e-08,0.00019223511204833726
1412.7453376066942,0.0016543387142509895,0.0011771993785755258,0.0004771393356754636
1415.513865436565,0.0028495392576420534,4.804281726614829e-08,0.0028494912148247873
1419.1435244219108,0.00043498246759267334,0.00022581090291248087,0.0002091715646801925
1420.8315110241108,0.015618442944713559,1.1376252277305268e-05,0.015607066692436253
1421.3594068782584,0.0007376494729967513,0.0003735459366460119,0.0003641035363507394
1423.6735607479984,0.0039172201099860445,4.930786037031758e-07,0.003916727031382341
1461.1947488613878,0.0024071672112506133,0.0017511146739173369,0.0006560525373332765
1480.7284785129696,0.00014030273553231087,3.657491221653283e-05,0.00010372782331577804
1480.8058165831217,0.0008617879609037912,0.000287900448084296,0.0005738875128194952
1481.041104210859,0.0008163348505251267,0.0005927424799589642,0.0002235923705661625
1481.052092828451,0.0003134251450824652,0.0002567924238593139,5.6632721223151265e-05
1484.1239576500884,0.09344869396645328,0.008190855082430039,0.08525783888402325
1484.1620199205233,0.12903635461508178,0.007850899936878411,0.12118545467820338
1484.3748046029405,0.07046032448506045,0.0037877152684656695,0.06667260921659479
1484.5669072430692,0.0030420341327424784,0.0008212436748337703,0.002220790457908708
1488.051683600757,0.008836621731126999,0.0005616494799706492,0.00827497225115635
1488.5228115103614,0.10606729551364999,0.00831500672426883,0.09775228878938116
1492.185516396826,0.00019267038235930135,1.1545691964502033e-06,0.00019151581316285114
1493.0108894234538,0.0049583573594156344,0.0026493704028609593,0.0023089869565546756
1493.7687839246507,0.027060699627043546,2.94691657241866e-11,0.02706069959757438
1493.8198881292367,0.027116129614272618,4.747468330722589e-10,0.027116129139525786
1496.9295794187783,0.0001951534626723063,2.165645584430058e-06,0.00019298781708787624
1497.9383295529915,0.029639060688129652,0.0013824993733870267,0.028256561314742624
1501.8206596644359,0.0010465834800809167,3.705531879813339e-07,0.0010462129268929354
1502.7440717640723,0.0016959338221848152,0.0006133084745291155,0.0010826253476556996
1505.7311791300112,0.0024503233418640157,1.19503306972289e-09,0.002450322146830946
1506.0650764976888,0.002333494206092674,9.790508270181876e-06,0.002323703697822492
1508.9729386065512,9.50583809363836e-05,1.8825295923088087e-07,9.487012797715272e-05
1521.4804212987235,0.02581956970071887,0.0007103638610987078,0.02510920583962016
2972.025799907842,0.001008402576081498,9.624417257082195e-05,0.0009121584035106762
2985.07693780878,0.9369812467459036,0.9289503067326941,0.008030940013209484
3007.056149671663,0.43691550819262737,3.401565283475368e-08,0.4369154741769745
3008.7217789709357,0.0048853908161830585,1.1050878668720134e-07,0.004885280307396371
3021.8688420072167,0.11277654549048756,0.10377659761082711,0.008999947879660452
3022.1062707097226,0.0961592626768896,0.08780539490597733,0.008353867770912262
3023.206808733215,0.10601583142187881,0.10043285392917606,0.00558297749270276
3023.3358424621383,0.13138047303307984,0.12202666458982943,0.00935380844325042
3024.701946087369,0.3221186584567911,0.30206568443490067,0.020052974021890442
3024.986606476022,0.42675515692970906,0.4038835375071752,0.022871619422533872
3025.508739457496,0.44951312849705366,0.4423591235637173,0.007154004933336351
3025.642817315212,4.398785402581668,4.325885557045887,0.07289984553578094
3030.907258850334,0.2060483724583142,0.19417453049458144,0.011873841963732767
3031.0417141071644,0.2297940521975206,0.21710681990098513,0.01268723229653549
3037.191624500283,0.09523934143136702,0.08235882826879011,0.012880513162576908
3037.306726823832,0.056956469183778204,0.04835113190179257,0.008605337281985632
3040.993929960212,0.4185468442343427,0.3891392799879349,0.029407564246407766
3041.3220811996057,0.45596294017450884,0.4233651055124805,0.032597834662028306
3043.901701085229,1.0880550934288415,3.1155537288673175e-09,1.0880550903132877
3044.1171833734857,1.1061757583672434,1.239757138885567e-07,1.1061756343915294
3047.022669609546,0.043743557375545555,8.634681173251709e-09,0.043743548740864384
3047.166049725191,0.04242132937605564,6.767129336905824e-08,0.04242126170476227
3049.604089179081,0.9050212413662075,0.897872772566315,0.007148468799892484
3049.731732239771,0.8967715990604592,0.8893694042577795,0.007402194802679656
3052.679768390425,0.03717166382801287,6.849835335615719e-09,0.03717165697817753
3052.705845328118,0.4183729895894583,2.07580401635263e-08,0.4183729688314181
3057.423723911102,0.1356957353191493,0.13315155503339568,0.002544180285753621
3057.8234904007636,0.6256905915620861,0.614687138928196,0.011003452633889996
3061.0112279839514,0.00742883856357946,1.5521981383127076e-08,0.007428823041598077
3061.4626838781824,0.005845396972235342,5.848879109056542e-10,0.005845396387347431
3071.7511523598787,0.11549093520022641,5.3085852613160565e-09,0.11549092989164114
3071.8466633700054,0.11253562734457577,4.783171737199538e-08,0.11253557951285839
3080.612566155076,0.023167800913380693,1.2416653029603469e-08,0.023167788496727664
3080.733395870725,0.020006622716616487,2.6948873128503416e-08,0.020006595767743357
3088.0044272393834,0.028161932413786134,3.88152377917809e-09,0.028161928532262355
3088.1382345957236,0.029358004950170217,7.290159122236825e-10,0.029358004221154303
3103.700146266279,0.021186977639681342,4.381133826626471e-09,0.021186973258547515
3104.0732094580885,0.08885425383828006,2.498109852906549e-09,0.0888542513401702
3112.6001469439557,0.12725572839446408,5.215331511065296e-09,0.12725572317913258
3112.641266872444,0.1294797240084604,1.817727843118862e-09,0.12947972219073256
3120.6799197762666,0.4091755390060311,0.06244290970961406,0.346732629296417
3120.9665349070383,0.41052238362063626,0.06342216904465149,0.3471002145759848
