frequency_cm1,total_intensity,isotropic_intensity,anisotropic_intensity
33.96484529056378,0.00020831058861508822,6.729273889398974e-07,0.00020763766122614832
33.42667999887879,0.0014972531090967462,1.3214131549877427e-06,0.0014959316959417585
17.102735805358325,0.0009655959028772165,1.0260512371601143e-06,0.0009645698516400564
2.287254615937992,0.0,0.0,0.0
1.0468912577423992,0.0,0.0,0.0
2.5714795914098847e-05,0.0,0.0,0.0
1.746365893478687e-05,0.0,0.0,0.0
1.511769738465883e-05,0.0,0.0,0.0
0.8003716192970943,0.0,0.0,0.0
5.536263510003695,0.002518014925148369,4.827429017724266e-06,0.002513187496130645
35.34313552831627,0.0190467311025437,0.0009771761478894663,0.018069554954654232
71.12659564530718,0.009105260930879357,3.369986272533135e-09,0.009105257560893084
81.0946469978461,0.009016255729973336,1.712816169897045e-05,0.008999127568274366
189.08688271988353,0.0014532615146212466,1.0416820046063028e-09,0.001453260472939242
201.72736699490028,0.002958968299687143,3.82310188578145e-07,0.002958585989498565
224.42374325626332,0.018815236217364743,0.006580863560310591,0.012234372657054154
225.59481580888746,0.006143612987502427,2.1117480368258884e-05,0.0061224955071341675
237.66042276796085,0.027266281318205517,0.007048298423731417,0.0202179828944741
257.73869042726477,0.015791579960834256,0.000450723243977658,0.015340856716856598
264.5113128342543,0.005522964526112672,1.009523484430043e-07,0.005522863573764228
274.15452487918486,0.0014518900669960708,1.3440734400557472e-07,0.0014517556596520653
329.52031771526106,0.012769155279897975,0.011871626448181296,0.0008975288317166802
430.87790808346995,0.0011557466407983571,0.0006379099580885055,0.0005178366827098517
460.80925344895155,0.0008877113454029237,8.516788800332841e-07,0.0008868596665228904
516.4725255022626,0.019636512382973315,6.674296484112307e-06,0.0196298380864892
529.3388254997259,0.004566067610958615,1.8827790789446693e-06,0.004564184831879671
532.930221940998,0.002953128701644192,1.2145966985843067e-05,0.002940982734658349
535.9816419083754,0.007190529363932396,0.00010461203673386447,0.007085917327198531
544.8890827892391,0.010886713359167032,8.071515950685872e-07,0.010885906207571964
558.6951303412276,0.13374336845256396,0.12127998070561487,0.012463387746949092
583.73902147933,0.004096554369939278,4.5182247006735936e-05,0.004051372122932542
632.2726644072651,0.006482720617620508,5.435652615998535e-05,0.006428364091460522
726.4215257483326,0.00011272319927243998,5.865786288539592e-07,0.00011213662064358602
741.0127653663818,0.0010073025172014408,3.0107865186336417e-06,0.0010042917306828073
752.9725623467912,0.0022697242285985805,1.9285209132805086e-08,0.0022697049433894477
877.1079214413583,1.8867887585113332e-05,4.709590041466294e-06,1.4158297543647036e-05
890.7767853964926,0.0028426620536696106,8.82507365302632e-05,0.0027544113171393473
919.3972386410419,0.00037029269900209583,7.207668628632095e-06,0.00036308503037346375
923.2609404992493,0.046966565123274046,0.028272874911436804,0.018693690211837238
927.2821650478184,0.0009343355060571372,3.3967622995117468e-06,0.0009309387437576254
940.1595712180389,0.005199043682875935,0.002752053941589049,0.0024469897412868857
950.9980453926812,0.06325003498898556,0.03905312486549855,0.02419691012348701
976.3540039958949,0.0005829363759112215,1.5009862259542012e-07,0.000582786277288626
978.6684866053882,0.002210192187188518,4.049898866263595e-06,0.0022061422883222544
1004.4380278389896,0.0006259251681843987,3.930319555303874e-06,0.0006219948486290949
1020.2419447004626,0.009363788293246944,0.0008007460062398887,0.008563042287007055
1022.3774178396684,0.3140327261613376,0.26263821059034875,0.05139451557098887
1037.358493736885,0.012181569258571834,0.006747964181914004,0.005433605076657829
1038.4879576113813,0.2148618290651561,0.18027541496409805,0.03458641410105807
1042.681372760741,0.007062150047636022,0.001661170039742392,0.005400980007893631
1061.7796858266017,0.0011768128514454135,4.660242964860948e-05,0.001130210421796804
1061.9852184570323,0.001166632689681136,0.0002702409932885912,0.0008963916963925448
1063.9551192597246,0.00031059940190441215,9.692332154588696e-05,0.00021367608035852522
1064.1291829311097,0.00115890475563536,5.696194766421225e-05,0.0011019428079711477
1139.0843423786384,0.004893573751093943,1.5017056827190456e-09,0.004893572249388261
1196.1129321876017,0.009340360262178927,2.0393796396602845e-06,0.009338320882539266
1198.8564150849768,0.004588889558271194,0.0011850548388858532,0.0034038347193853405
1213.2676358590659,0.07413406411235322,0.0513341947128278,0.022799869399525424
1271.709285676901,0.006279983588706124,0.003257067842104834,0.00302291574660129
1279.1882484613066,0.00822115522152442,4.988377093609984e-07,0.008220656383815058
1304.7978807317663,0.008305213384885548,1.272111169499446e-06,0.008303941273716049
1332.9089366157946,0.002121759925321329,2.973294540242314e-06,0.0021187866307810868
1341.5553769943008,0.019663791106608736,0.007818422562992162,0.011845368543616574
1381.1969988186347,0.6276785690984039,0.34641700299215084,0.281261566106253
1410.427230030279,0.004468490999827713,0.0001479739118391106,0.004320517087988603
1410.545019608506,0.022464372593003344,6.713748299255758e-08,0.02246430545552035
1413.8486363162867,0.00898018359381647,9.920647033599617e-07,0.008979191529113108
1422.1452736914193,0.3606198438856174,0.26059364098612176,0.10002620289949563
1457.069758547256,0.007627986360701458,0.0014146299635089852,0.006213356397192473
1463.382363410084,0.009274183330029776,3.7000882725138616e-06,0.009270483241757263
1471.502418051701,0.18925203967753124,0.027551074530397967,0.16170096514713328
1483.0734226853403,0.02237657990766871,3.5502779745500095e-06,0.02237302962969416
1484.3490647244264,0.02926872805004399,9.872585348080588e-06,0.02925885546469591
1484.430254119716,0.03262667999171871,2.3937103685283678e-05,0.03260274288803343
1484.480322359151,0.026784325511519793,9.052940707262737e-05,0.026693796104447165
1485.2048448156263,0.02079710923809089,2.850299362789238e-05,0.020768606244462997
1501.4497312884223,0.011591480722741207,6.016686807565279e-05,0.011531313854665553
1516.798461995291,0.007118087586894112,4.515096329428093e-07,0.007117636077261169
1523.691798848273,0.006186167167930023,1.5043399214796818e-08,0.006186152124530809
1535.072925848222,0.11240835076984435,0.06161553044192398,0.05079282032792036
1674.523067072976,0.05603583771248685,0.011745888008240871,0.04428994970424598
1676.0073810865863,0.013662941282589955,3.118076198456757e-05,0.013631760520605387
1683.782904869636,1.684538846415863,0.5091992941195768,1.1753395522962864
1685.623913066205,0.07983870125434765,8.104510712549806e-09,0.07983869314983694
3054.6625082707087,0.3747959755574296,0.0826130092543893,0.2921829663030403
3054.7815107383217,0.38606937102030703,0.2565832637602361,0.1294861072600709
3055.243154820779,0.2597682002776396,0.21934250504002684,0.04042569523761275
3055.49137333651,3.782326260728924,3.7333527932539425,0.048973467474981505
3113.5275509167,0.3986532066016061,5.545972016348607e-05,0.3985977468814426
3113.857882236016,0.44684091118754204,0.0006429908208952958,0.44619792036664674
3114.008397858273,0.25255343746625475,0.0007713814010629942,0.2517820560651918
3114.1244565202924,0.29830368793153506,9.033903524475103e-06,0.2982946540280106
3138.7822683359764,0.23904727880341778,0.002300155263575682,0.2367471235398421
3138.8233291420233,0.36339144834432446,0.0034524695049876976,0.3599389788393368
3139.8040377345174,0.2480527876653596,9.520546697409168e-07,0.24805183561068986
3139.8429543836774,0.19517648017943268,1.3164532717935693e-05,0.19516331564671474
3173.749217698601,0.20555221639718588,0.11046235044164593,0.09508986595553995
3174.059590635336,0.992005669893519,0.532466672037643,0.45953899785587604
3188.362152484582,0.1316146243381765,2.9379020920632457e-06,0.13161168643608442
3191.681008058425,0.12600261765380094,1.0981228210117052e-05,0.12599163642559083
3193.7063843462147,0.28054876967404635,0.23503492090174655,0.0455138487722998
3196.8182096171213,0.4829757310891072,0.4131294356136928,0.06984629547541438
