frequency_cm1,total_intensity,isotropic_intensity,anisotropic_intensity
0.925875226907627,0.0,0.0,0.0
0.8431128305094809,0.0,0.0,0.0
3.332690955548892e-05,0.0,0.0,0.0
2.0432437984932637e-05,0.0,0.0,0.0
1.919310758085333e-05,0.0,0.0,0.0
2.299979712110216,0.0,0.0,0.0
15.660474498167579,0.015719644183527715,0.00034763393622951104,0.015372010247298203
21.897182969374843,0.006122240809416878,0.000372953830660305,0.005749286978756573
37.16802575053823,0.030825324858342926,0.003915944066839641,0.026909380791503283
43.036732639772566,0.004834674074271685,8.850042043938008e-05,0.0047461736538323045
62.171559691114396,0.004880577672930467,0.0008462116913038909,0.004034365981626576
75.14419826843213,0.0014275251731893628,0.00015108450444067676,0.001276440668748686
89.01652146546859,0.004286805831118525,0.0006177311587565236,0.0036690746723620016
112.95919388897026,0.05772355541234857,0.019395247758198352,0.03832830765415022
118.63064907097615,0.015162660509173859,0.004901222410067558,0.0102614380991063
144.9194813585411,0.0022475501721176427,5.578434678238178e-06,0.0022419717374394044
183.38622571572034,0.10612409093162095,0.05495374856793047,0.051170342363690474
203.75586624663248,0.04980154383918935,0.013369917791197141,0.03643162604799221
227.51311824140765,0.007626544597338949,0.0007431448612012383,0.006883399736137711
243.1013657949162,0.0005100471785157515,0.00019323386719695168,0.0003168133113187997
261.5463647275768,0.022985037757175152,0.0063865886254833165,0.016598449131691836
276.9853276665895,0.009776562476565817,0.005763098523147478,0.004013463953418339
302.7478302003829,0.03471685040037276,0.009961095513822767,0.024755754886549998
342.6847822310604,0.00779877644086707,7.50806604503889e-05,0.007723695780416681
356.47270248152137,0.0072095808946114805,0.0001875448135926905,0.00702203608101879
387.875619686396,0.013513446468889448,0.003555498914972748,0.0099579475539167
425.4335753150287,0.05500775324611051,0.021448635523129384,0.033559117722981126
428.18372152018907,0.007079461150431758,0.0025197520194652225,0.004559709130966535
451.6665904309165,0.004927602348909153,0.0017506755818264307,0.0031769267670827225
469.99087764414554,0.02055533237456844,0.013619892479392015,0.006935439895176426
489.1030577067735,0.003132537064063894,1.539211895965717e-05,0.0031171449451042367
540.8690861757227,0.014322307702938469,0.009199135062024326,0.005123172640914143
542.8507209251223,0.0021437303797732414,0.001436763658110982,0.0007069667216622596
565.23897779382,0.006997760960842435,0.0023985084893810293,0.004599252471461405
622.2577687299519,0.01786095106301074,0.013490364620915019,0.00437058644209572
648.7267713605686,0.05025740239958989,0.0002051756766481894,0.0500522267229417
658.3267998283137,0.021192456616643728,0.001541063958212813,0.019651392658430914
734.6834117103823,0.0004285702776186667,1.0228203822805607e-05,0.00041834207379586106
747.7898068202361,0.02998683819440536,0.008783784089992941,0.021203054104412422
758.6391412582078,0.015146785885962796,0.006082660575909418,0.009064125310053376
778.1234232206658,0.01588648806480672,0.014836269128436441,0.0010502189363702785
795.1385349342592,0.001788248075092813,7.978538594839391e-05,0.001708462689144419
824.3468557487506,0.24163710817705206,0.17946706420327083,0.06217004397378123
842.3505781100237,0.0024209711561329317,0.0003465330887622924,0.0020744380673706395
852.6319225847201,0.0625385482963191,0.0436022729656045,0.018936275330714597
859.4844498147658,0.013557274608332035,0.003021016634686182,0.010536257973645853
867.1240893525687,0.017569244434642778,0.01441186282208663,0.003157381612556146
874.0557090334426,0.012257307152206163,0.0006513850558930263,0.011605922096313136
913.0048283599658,0.06915476488576063,0.00034112610359939444,0.06881363878216123
925.5347075162421,0.07488698749976802,0.05248281850651916,0.02240416899324886
936.1647252865314,0.0010207049342189627,2.7126679855864995e-05,0.0009935782543630978
980.9607121240247,0.004556971031448896,0.002749607847175568,0.0018073631842733286
984.721984369614,0.012708075979939585,0.0035171693476053717,0.009190906632334213
1001.4619326827582,0.04102382362435754,0.015151871001060017,0.025871952623297518
1006.6412367199998,0.002006191637521828,0.0009272753178798304,0.0010789163196419976
1028.3101466714893,0.1954489639193,0.07720492503014334,0.11824403888915666
1034.8357637862982,0.004652402138595243,0.0010770116764565196,0.0035753904621387235
1035.0822849952658,0.014090961500461137,0.003138804564595216,0.01095215693586592
1042.7446612851859,0.003245257580109547,0.001441314511392598,0.0018039430687169487
1081.8575526531615,0.04395336046962646,0.009076641015965042,0.034876719453661414
1089.449670462165,0.023371971259045925,0.012356409571321988,0.011015561687723937
1093.5501213367575,0.005136536786584486,0.0004979489613696588,0.004638587825214827
1132.3510306227083,0.10310341181823864,0.06906422704605356,0.03403918477218508
1137.2113840637355,0.016218282063275535,0.0017346331265724077,0.014483648936703127
1139.1322492985266,0.024962224673940096,0.008622926521070622,0.016339298152869473
1171.8886741846943,0.0028071780166998178,6.692600570703871e-08,0.002807111090694111
1193.512659343711,1.9710822023555021,1.0225111035620262,0.9485710987934759
1197.6330064823924,0.16308681884201004,0.09453299237478303,0.06855382646722702
1207.5733757470725,0.11491858236678017,0.0824095809844763,0.032509001382303865
1229.3060088209345,1.4793465447152583,0.6786151167263484,0.8007314279889098
1231.412990627745,1.2773883499336676,0.5683156379726412,0.7090727119610264
1240.3600174980584,0.20330709579877085,0.15156534429680335,0.05174175150196749
1277.8860585655495,0.009255603599967126,0.0003131463598281883,0.008942457240138937
1282.4883759014872,0.04048232516406501,0.030341007077624868,0.010141318086440147
1293.7153738842158,0.020969011736359042,0.009840674776559337,0.011128336959799706
1299.6633243646374,0.030206537779372166,0.00044735572224550486,0.02975918205712666
1313.9526278893509,0.0048360945769157174,0.00046779052663309384,0.0043683040502826235
1328.2967769583452,0.3671845017902725,0.1635544016679123,0.20363010012236024
1331.1275664464276,0.04181045809841266,9.218874713972268e-05,0.04171826935127294
1341.2270355839964,0.5557660561416692,0.25457171220542857,0.3011943439362406
1344.9576472031533,0.19123195390340877,0.08666949883022293,0.10456245507318584
1364.3989873281128,0.10454052970849724,0.04079667104555901,0.06374385866293823
1404.0285703272068,0.04750475909726047,0.021788507858723462,0.025716251238537005
1409.554390365475,0.034924563316552804,0.02075571298056256,0.014168850335990245
1412.8199295061834,0.0007463292667799392,0.00010501758292023087,0.0006413116838597083
1463.0116861119525,0.049302094284633904,0.012557411696942732,0.036744682587691174
1470.6991574456806,0.06494527759469076,0.018600912130549953,0.046344365464140815
1478.7906835468698,0.037896267475700976,0.033485059820378915,0.004411207655322059
1482.6103812912788,0.12994151869834708,0.02224734786236647,0.1076941708359806
1486.7466051087767,0.008571372615736567,0.0012089123788923113,0.0073624602368442555
1493.2592037965196,0.04720516125099491,8.954390409481553e-09,0.0472051522966045
1493.3990061668517,0.026676306579878968,4.025190992200234e-06,0.02667228138888677
1496.1850603046712,0.02590228955796706,0.00010731732932696834,0.025794972228640092
1505.5552354652161,0.06153860105280549,0.018705086745896507,0.04283351430690898
1505.641487026358,0.004715123184599733,7.79676345944572e-06,0.004707326421140287
1557.6189468944895,0.8316520399367469,0.29400499980751454,0.5376470401292323
1568.4835471431054,0.011633775001206794,0.0011080129677096655,0.010525762033497128
1647.9397273043285,0.035697244901487124,0.008299890030824804,0.02739735487066232
1653.564832700336,0.3440856313059568,0.14032514650765285,0.20376048479830394
1682.3377011740492,12.36025380427882,4.217397237151606,8.142856567127215
1691.5125893809577,0.9437567585537809,0.42045313623366765,0.5233036223201133
1745.1090339726218,10.191232254622397,4.200263908115064,5.990968346507334
3035.0636077014633,0.9835703523825892,0.9432121387291608,0.040358213653428426
3041.1499970108225,0.012837255901409307,0.0036192165555016744,0.009218039345907633
3041.683922735817,0.8977948464265813,0.8558203666039075,0.04197447982267381
3046.54888495337,0.25676677598253056,0.16226533464972656,0.094501441332804
3050.27440153015,1.7023586685405436,1.6550979986498904,0.04726066989065318
3052.282205355967,0.12589345976329935,0.006925381376723234,0.11896807838657611
3060.250776573149,0.5837366644524057,6.809348678043824e-05,0.5836685709656253
3078.0853912473444,0.001305151273488513,4.0968692806334164e-05,0.0012641825806821788
3098.4520646715655,0.1702890598347676,0.00027224680245973106,0.17001681303230787
3103.5590534043977,0.22771419664091594,1.933139741698539e-06,0.22771226350117424
3114.4930515393726,0.10659151036737279,5.109862265413911e-07,0.10659099938114625
3122.856252810735,0.494103537043697,0.09342954823592688,0.40067398880777017
3167.898128546402,0.8362094758140415,0.2792132331658444,0.556996242648197
3182.441044409785,0.5100597667646772,0.2084979675152172,0.30156179924946
3184.9375022776153,0.4162654779414244,0.17701453175657478,0.2392509461848496
3192.5314601911095,0.25691124877900434,0.039075652972492804,0.21783559580651154
3212.790526665033,0.21187741573020402,0.1284376431763883,0.08343977255381572
3217.4100694014273,0.6350342645223376,0.4618282388733846,0.173206025648953
3218.7536424657874,0.11314866356311432,8.322792842333625e-05,0.11306543563469099
3222.8014525251583,0.747628749619276,0.4282341648505661,0.31939458476870985
3239.92392057373,0.6213534669085918,0.43988154579527605,0.18147192111331578
