frequency_cm1,total_intensity,isotropic_intensity,anisotropic_intensity
1.415003898228798,0.0,0.0,0.0
2.315424824222595e-05,0.0,0.0,0.0
2.00910079493875e-05,0.0,0.0,0.0
3.94438495482826e-05,0.0,0.0,0.0
0.12232943526360994,0.0,0.0,0.0
1.3353574955051466,0.0,0.0,0.0
27.644848377668232,0.0044555482980666,1.0804886259612726e-05,0.004444743411806987
30.77999979499147,0.00481941968396939,9.60466696315229e-07,0.004818459217273074
54.25593507214994,0.00511498054327434,3.215849419372503e-05,0.005082822049080615
63.94584738047156,0.006025246716503471,0.0006451360162786321,0.005380110700224839
95.3127673661017,0.00218965941958123,0.0002886626630684933,0.0019009967565127366
108.61510860708195,0.0015499376683533778,1.6414091557128472e-05,0.0015335235767962494
111.91887477966297,0.0012525348535860142,0.0007680845366404958,0.0004844503169455184
161.3328072308698,0.001293100175611596,0.00024188248985503643,0.0010512176857565595
166.3365576118306,0.0021222964489597145,0.000407565844001659,0.0017147306049580555
173.34457875666175,0.0019464917678880212,0.0007614816482399801,0.0011850101196480413
200.17312547413678,0.00026381280884072507,0.00015151246725099782,0.00011230034158972723
205.24883849658858,0.003011324913388241,0.0017032563832617689,0.0013080685301264724
224.05337890649136,0.0009301806743932733,0.0004109040748909805,0.0005192765995022928
237.55108733013137,0.0006275135898083968,8.336964390789573e-08,0.0006274302201644889
241.70518718300048,0.0008107500109853163,4.142813952511777e-06,0.0008066071970328046
245.46299381013637,0.0009553455408191688,0.00021763852454977678,0.000737707016269392
283.2561813227246,0.0031001080426859354,0.001805080780018842,0.0012950272626670936
333.66827423798776,0.013432654001071777,0.011179510598676752,0.0022531434023950253
384.80912593100356,0.009420970992572986,0.005787254581763717,0.0036337164108092694
397.8571337425044,0.0027498317512945876,0.0023145151428955223,0.00043531660839906533
446.38034684017043,0.023005507679115644,0.01636639422879558,0.006639113450320065
467.92162164740085,0.013151266397777063,0.010678166634083585,0.002473099763693477
483.98445562063745,0.0025741674883874065,6.131988751743088e-06,0.0025680354996356633
498.96367527354676,0.017584898643787254,0.015039119680634469,0.0025457789631527835
504.6794522668223,0.011410149776055973,0.0032036258079429307,0.008206523968113041
554.930635527767,0.009052463812524501,0.005598294154696947,0.0034541696578275537
610.5051281566563,0.00861031893504255,0.005302005412303242,0.0033083135227393087
702.7166446469538,0.01856550150848567,0.01637787465662841,0.002187626851857261
715.4162834202349,0.0331395451557796,0.02785238309593155,0.005287162059848048
763.4624965933178,0.0007245734653147016,2.8839443658113217e-05,0.0006957340216565885
775.5641061232207,0.0009594015070228105,5.3229765619898265e-08,0.0009593482772571906
788.2458573375292,0.0026884857267457122,0.000182927500223512,0.0025055582265222
806.9566669598034,0.00926896447311627,0.006690795413241904,0.0025781690598743654
848.8313628229596,0.001054246496445791,0.000279846585693284,0.0007743999107525069
856.7384817858608,0.0397729698836142,0.024567873560122203,0.015205096323491995
918.0478697427999,0.01820483375078476,0.006415853366981464,0.011788980383803296
947.6209543690013,0.011935708936981267,0.0004011096393661266,0.01153459929761514
984.2633877248326,0.005264566008883757,0.001093426579696202,0.004171139429187554
1000.2304280070593,0.12873847526480842,0.08156074425795701,0.04717773100685141
1014.7400779839251,0.021819145691046843,0.016062023128827603,0.00575712256221924
1021.6746665112653,0.018747188604352448,0.004251635028383059,0.01449555357596939
1055.4730313579228,0.009856009187589373,0.0030393632434742965,0.0068166459441150766
1093.1351206973238,0.03948296576542322,0.02671549952993391,0.012767466235489308
1113.065322774581,0.0161577128360867,0.01324160803521151,0.0029161048008751926
1128.5535232089098,0.0023815715517275537,0.00011901828452065614,0.0022625532672068977
1140.9595416562636,0.042982371503179365,0.026086414333453836,0.016895957169725525
1175.1545455942908,0.003633211652068852,3.221742909180222e-06,0.0036299899091596717
1176.0332925085183,0.006095861976480861,8.966611780190453e-05,0.006006195858678956
1188.7748372793774,0.003033882494267439,8.00500459893139e-05,0.002953832448278125
1191.2792824212577,0.023800663671737284,0.01532738889157089,0.008473274780166391
1208.8936816929488,0.007828818699097828,0.003045423991214576,0.004783394707883252
1236.0739440677996,0.008531885178206933,4.0312267184060795e-05,0.008491572911022873
1283.8600234707105,0.020563871424558327,0.00034743844797087425,0.020216432976587453
1307.056442620081,0.046264704662318454,0.02347159021838684,0.022793114443931617
1322.6456036717052,0.016392031645191537,0.0001278011182726518,0.016264230526918885
1330.861347081027,0.008534067150458177,2.174564104895572e-06,0.008531892586353281
1353.6780684084283,0.002076424000393408,0.0006807350407868283,0.0013956889596065797
1382.4428918241208,0.011194246296885844,0.0001165044780010217,0.011077741818884821
1397.8362762513639,0.020512356470341244,0.0022001251875911313,0.018312231282750113
1399.163708096198,0.02193045269154748,0.0011766295492034082,0.02075382314234407
1406.9979965522236,0.0019191366057090238,3.1131778415307357e-06,0.0019160234278674932
1412.6172653380033,0.003855545446381954,0.0022138176674340085,0.0016417277789479454
1415.8125477215674,0.0040611553984676255,0.0012067762283013486,0.002854379170166277
1433.4432906873897,0.01998829142342351,0.00045919226758444704,0.01952909915583906
1457.5358279485677,0.028402240828979963,0.002382016596149053,0.02602022423283091
1472.2933062592538,0.06112358831703616,0.006599240189244675,0.054524348127791486
1479.3547546900625,0.025577725227898886,0.00010279051510295223,0.025474934712795935
1481.0041767370235,0.007142994788629657,0.0036012842730970577,0.0035417105155325992
1486.029152678973,0.014589351445107918,0.0005973776168773529,0.013991973828230565
1488.6864605894557,0.05174489614387385,0.0009033911256502807,0.05084150501822357
1490.7697716758528,0.03369796360485254,4.78187921914296e-07,0.03369748541693063
1492.0914424699877,0.03972583915849742,0.0012615280640292934,0.03846431109446813
1497.40185117359,0.01233476923517633,6.350638682357549e-07,0.012334134171308095
1502.4144068186588,0.009031693853428377,5.420902047032073e-05,0.008977484832958056
1504.3970703125103,0.0056112418255522024,0.00026181042923943454,0.005349431396312768
1517.386146002687,0.007421535439432672,3.7694983092507075e-05,0.0073838404563401645
1548.6916814675867,0.011092115594519707,0.003200605886422168,0.00789150970809754
1615.2095470426882,0.09291960336942214,0.022103681714940402,0.07081592165448174
1648.7366693708013,0.05086455667029922,0.001659258167814181,0.049205298502485034
1657.5056556271552,0.009473192436901546,0.0008933145754463849,0.008579877861455162
3033.694855934274,0.5419750253640754,0.4242513040953105,0.11772372126876496
3056.268924374263,0.9438028625366957,0.8963259724304256,0.04747689010627013
3059.4206120511217,0.7865694275776615,0.731547097699543,0.05502232987811855
3060.102596265616,1.029221085105531,0.9366509069037383,0.09257017820179272
3078.360974282812,0.8637117878749992,0.849289802213255,0.014421985661744251
3083.403506458383,0.927163580772591,0.6939756350025683,0.23318794577002266
3085.588390422395,0.4907884243981596,0.10796791854782192,0.38282050585033767
3098.5811338323238,0.2201760693651047,0.1819167506181443,0.03825931874696041
3121.6258305209835,0.44892237975785804,0.014569542984025106,0.4343528367738329
3122.922102807254,0.49377915469899175,0.12685307333925622,0.36692608135973553
3125.672571380052,0.2539993316542707,0.023297782230338807,0.2307015494239319
3133.830665083532,0.1800615509103523,0.03726417601522862,0.1427973748951237
3137.433114325435,0.3509588054288329,0.048032783179885616,0.30292602224894727
3143.030976268153,0.1760437007797929,0.00429524555238819,0.1717484552274047
3149.214658320228,0.16465539508553556,0.00010742920749688705,0.16454796587803866
3150.082333946614,0.033432539289974035,2.848181773808161e-05,0.03340405747223595
3179.9232888077645,0.43945704718698725,0.08433041805338228,0.355126629133605
3664.707111795088,0.3776833938878901,0.30663041236020744,0.07105298152768266
3684.3203029425686,0.4725665979799143,0.3569758640111887,0.11559073396872557
