frequency_cm1,total_intensity,isotropic_intensity,anisotropic_intensity
1.7617282749379892,0.0,0.0,0.0
3.866895691865367e-05,0.0,0.0,0.0
2.0860309871726453e-05,0.0,0.0,0.0
1.0030128652705748e-05,0.0,0.0,0.0
1.6764477065450176,0.0,0.0,0.0
1.7747950827847432,0.0,0.0,0.0
15.4513605249406,0.002872393163067492,7.420837471369987e-07,0.0028716510793203548
23.65822899191991,0.0014221093266764185,1.2334344340083158e-05,0.0014097749823363355
34.60225236645774,0.001097680617046994,7.3135148995131125e-06,0.0010903671021474809
45.3311102254756,0.00018377196251953418,3.897041990263305e-06,0.00017987492052927087
47.75476935087371,0.0015332082149561617,1.0334233025805195e-05,0.0015228739819303566
68.52276250633254,0.00023392336985694051,6.262961847900408e-05,0.00017129375137793645
94.41969380725841,2.2643642543024463e-05,1.5043650411222464e-06,2.1139277501902217e-05
99.6300206438551,0.00020475763033441107,4.74075749031219e-05,0.00015735005543128917
111.09263055802329,0.0002649732659356106,0.00018275512495157564,8.221814098403497e-05
126.52912808209571,0.00016355671401200575,2.9570832012649965e-05,0.00013398588199935578
135.26644217455413,0.00016123012598480158,5.22239419548071e-05,0.00010900618402999448
147.73890260299092,0.0024248796196630067,0.0020825142222824474,0.0003423653973805592
167.2357124061651,0.0029588256228752254,0.0017670736975185166,0.0011917519253567086
220.12484220375447,0.01204409178459152,0.00891371224128802,0.0031303795433035003
243.34545717017397,9.289392939458272e-05,3.4000709686432283e-07,9.255392229771839e-05
246.41627550578113,0.00031007505552922026,0.0002400350599942864,7.003999553493383e-05
274.77793767368803,0.006454019687304785,0.005220080136607455,0.0012339395506973305
296.19139411172904,0.004766854014013324,0.0013273797760718967,0.003439474237941428
344.9831397417059,0.0025912900141477455,0.0002470953227873002,0.0023441946913604454
371.4711781379019,0.0027379392975498754,0.0022072745980216786,0.000530664699528197
408.6462210584597,0.009328023919307787,0.004886143598483402,0.004441880320824386
451.3257923752747,0.004442472054536591,0.002482532835105518,0.0019599392194310727
466.8004675046552,0.0003815880000106339,9.289350814103016e-06,0.00037229864919653086
528.4605799604158,0.001742435636822413,0.0003530155182430747,0.0013894201185793383
690.1111551910097,0.0031978879808111102,1.6435266816608424e-05,0.003181452713994502
697.1317801411617,0.00010448067789896192,3.928409332855678e-05,6.519658457040513e-05
727.8297425075923,0.0004088050097978194,7.479028792959684e-05,0.0003340147218682226
735.9679339205142,0.000561270096955532,1.0185688643634394e-05,0.0005510844083118976
753.3952125301377,0.0010395665170182208,1.794151899458347e-05,0.0010216249980236373
772.900831154532,0.001822729450579246,0.00024785143258052814,0.0015748780179987178
825.8240027819785,0.001052808147612916,4.860525348089961e-05,0.0010042028941320163
847.5973107740863,0.0011743678989175948,0.0002952643894272323,0.0008791035094903624
883.8841958756934,0.04062078689547021,0.02984471583451995,0.01077607106095026
900.8805361859621,0.005556714037112213,0.003575679105873093,0.0019810349312391205
907.4241641287932,0.021307159939935844,0.00876986341344628,0.012537296526489565
917.8329158895939,0.020197904951656936,0.013465748104475862,0.006732156847181075
943.1608538328576,0.05344410878283505,0.03573818351632078,0.017705925266514277
975.6785505932668,0.008882244571148872,0.0042327019349197225,0.0046495426362291505
1019.6997503346213,0.004184128852856342,0.0004988138235226388,0.0036853150293337028
1030.5419875701657,0.025102730586023192,0.01137406117536391,0.013728669410659283
1046.1117730183637,0.007178536406380581,0.0021841566957031275,0.004994379710677454
1056.61833171294,0.003842268768418158,8.681646312671132e-06,0.0038335871221054866
1065.1099528502766,0.05271043437015726,0.021716434155919985,0.030994000214237274
1075.9524710869189,0.022848725685805364,0.008269215486541677,0.01457951019926369
1084.6424960107124,0.03653999570262604,0.008730972427584692,0.027809023275041346
1089.8936109759466,0.011024578942897338,0.0026437671269043217,0.008380811815993016
1106.7270259841519,0.03820622632206316,0.005649374810387318,0.03255685151167584
1109.2550875231873,0.03968504897461565,0.03012533516417993,0.009559713810435721
1149.2442806414542,0.03773486361246974,0.02375445206813063,0.013980411544339114
1153.8266343610603,0.029350484662411726,0.007099356723342597,0.02225112793906913
1160.9522942740616,0.010216546296080969,0.0023131869409189288,0.00790335935516204
1197.141825174314,0.028821367616708456,0.01835674630014151,0.010464621316566948
1231.002355841324,0.00689039490993683,0.004329664065891382,0.002560730844045448
1248.498614961241,0.0063598316701531125,0.002639128896248667,0.0037207027739044455
1262.3840512544125,0.0007019984469612806,0.0003422774138197173,0.00035972103314156335
1268.9150950275518,0.003320966470072578,0.00035796375964264077,0.0029630027104299373
1285.635509667544,0.002936185490946565,0.0002894387933138448,0.0026467466976327204
1302.3934234545452,0.013745190400617509,0.0016145129308875836,0.012130677469729925
1319.5568154529626,0.0028231135136855983,0.00021376876228630702,0.0026093447513992913
1320.9926593937819,0.014430773888367708,0.0007988736650562627,0.013631900223311446
1328.6091578834153,0.029702879894376446,2.625822100774611e-05,0.0296766216733687
1332.7244717016697,0.009321393409512433,0.000342605767973794,0.00897878764153864
1334.4207375549497,0.04988769207041935,1.943310176708251e-05,0.04986825896865227
1335.7362911341404,0.018637390956531486,0.00034076737019861456,0.018296623586332873
1349.853630712958,0.006219721566791863,0.00029426638292443267,0.00592545518386743
1357.3414657636658,0.009439013114104621,0.0005674813015351246,0.008871531812569496
1397.953860955386,0.0020557660745958786,0.0001898987715779877,0.001865867303017891
1400.0744707486635,0.0035236374682367606,0.0017894857926100825,0.0017341516756266783
1412.417930628343,0.0012976934776370817,0.00012512116747783733,0.0011725723101592444
1412.9574552317824,0.0012070704107143252,0.0007556781396306878,0.0004513922710836374
1415.645246848808,0.0011805400155186396,9.895114020112944e-05,0.0010815888753175102
1417.7469215081567,0.007506813183195067,0.0007218197292199697,0.0067849934539750975
1421.1784556191003,0.006112763577444638,2.261334407910776e-06,0.006110502243036727
1445.2643064717033,0.004131226415351508,1.278279394242716e-05,0.004118443621409082
1456.313614787164,0.033872405978372176,0.0006413207553754931,0.033231085222996684
1480.8736449426874,0.045905445398309236,0.004903401541186972,0.041002043857122264
1481.148259973678,0.01365065670445747,1.365720676183228e-05,0.013636999497695639
1483.8136808862191,0.07662722159869301,0.00011737396550743507,0.07650984763318557
1487.207958450476,0.0042417772428611986,0.0004412966243379062,0.0038004806185232927
1488.0894330427582,0.04659409576277915,0.0014025933542668283,0.045191502408512316
1488.9527021101683,0.0263617407907936,0.000545487286109586,0.025816253504684014
1493.8798738777527,0.026928227020773934,6.351832027730224e-06,0.026921875188746204
1494.2331901963144,0.026738557616764202,1.9848810029687625e-07,0.026738359128663906
1497.6051826516239,0.004209489771401452,0.00014525246854805779,0.004064237302853394
1502.2317786496487,0.0034609873968681456,0.000629479162676002,0.0028315082341921435
1503.9966274652907,0.0033994887858023815,0.0009283333381826465,0.0024711554476197347
1505.3000904887474,0.002872419654397274,5.723091793000439e-05,0.0028151887364672697
1811.846249670805,0.03524303519780453,0.011349417143510412,0.023893618054294113
3023.336031279134,0.039991672127872684,0.0075910984872820915,0.03240057364059059
3024.8096599815362,0.563780346925781,0.5364161370752542,0.027364209850526858
3027.451117135648,1.286874436744652,1.106273786783585,0.18060064996106695
3030.9698195901515,0.036686179794041845,0.029250515872473532,0.007435663921568313
3033.823162905275,0.5352588053559141,0.49807814180668597,0.037180663549228145
3035.581748248782,0.11251561813054478,0.03011920079213603,0.08239641733840875
3036.5402874773695,1.072643045266655,1.0454938402366247,0.027149205030030446
3041.1906204225425,0.3193223719925484,0.2706330793097532,0.048689292682795225
3048.2732385383697,1.07013045528378,1.0659600407534604,0.004170414530319675
3049.8769697746498,0.9882673176324978,0.8275593615416564,0.16070795609084132
3050.115191040041,0.48672714076264423,0.1265227214907625,0.36020441927188174
3057.788335947634,0.33866938769513677,0.056643376662078686,0.2820260110330581
3059.3153347733287,0.13479491736360444,0.03270727379262522,0.10208764357097923
3063.0860151188226,0.6594766689980885,0.4063762063100589,0.25310046268802966
3064.671926847611,0.19953095813621982,0.18144233070709515,0.01808862742912467
3066.4820294110214,0.4394085091169953,0.04707004575859773,0.39233846335839756
3073.6106916478275,0.3717237075980639,0.3009654032859609,0.070758304312103
3075.0437083396314,0.15719107686039946,0.013068978074080282,0.14412209878631918
3081.490891433432,0.03140882912061714,0.007393593466197047,0.024015235654420094
3090.067636351686,0.018634875728687418,4.131104478406846e-06,0.018630744624209012
3096.540065471576,0.28074109983734497,0.0005531359009117639,0.2801879639364332
3107.5376184651427,0.04571665590031839,0.0006033877317325235,0.045113268168585866
3113.006948372886,0.134077327752406,0.00013591065862487457,0.13394141709378113
3120.23681506749,0.036831529364107586,8.205515721674264e-08,0.03683144730895037
3121.0968464477796,0.3951756572713224,0.05704640482213572,0.3381292524491867
3123.8846186811465,0.4276949440750066,0.09032887403804755,0.337366070036959
