frequency_cm1,total_intensity,isotropic_intensity,anisotropic_intensity
0.7557325981443033,0.0,0.0,0.0
0.2279589989404618,0.0,0.0,0.0
2.745937616211721e-05,0.0,0.0,0.0
1.0639818466713333e-05,0.0,0.0,0.0
2.6658975576835703e-05,0.0,0.0,0.0
1.5749567618484186,0.0,0.0,0.0
16.273438196285213,0.0249929806660587,8.380559835717554e-09,0.024992972285498863
20.87177079475723,0.003200698689715575,7.871991980447326e-09,0.0032006908177235945
30.50067719364686,0.00839849562224066,8.7424834734572e-05,0.008311070787506088
37.7998103478369,0.000674138101287452,5.7136990602488494e-08,0.0006740809642968495
51.94089251078753,0.001920530434793776,9.808903945965529e-08,0.0019204323457543164
79.3732009478661,0.009944515378568266,0.00037227964807853923,0.009572235730489728
93.31151409899464,0.0007188529287393143,2.842041247587145e-08,0.0007188245083268384
104.98739235649336,0.00020971620923106716,1.6675810422304198e-07,0.00020954945112684411
139.9290116576018,0.005838935644209546,0.0035494246769738093,0.0022895109672357366
153.4060366591586,3.398741183565944e-05,1.8898010646482078e-06,3.209761077101123e-05
158.9527500881092,0.0001267583029486868,2.05453611866478e-07,0.00012655284933682032
185.74894350803729,0.010607283862825851,0.007010583002622104,0.0035967008602037476
253.26234111851804,0.003108887576336943,0.00043325797325316604,0.002675629603083777
309.5681765342834,0.004291540869718202,0.00022907194077751605,0.004062468928940686
348.6897111251514,0.00029387411300204523,3.182636558656823e-07,0.0002935558493461796
388.2773614383246,0.0012841495681008555,0.0001319788601531089,0.0011521707079477465
416.8012399094922,3.337176431522671e-05,1.0032198728153332e-09,3.3370761095353896e-05
440.2522930424489,0.0007541953308700522,5.336363852857548e-05,0.0007008316923414768
506.91014959412513,0.0018235405651856873,0.0012285099374912357,0.0005950306276944516
521.6273798535167,0.006076678209835939,1.2713448951584567e-06,0.006075406864940781
530.8315763322827,0.004816202599229372,0.0012553171591941925,0.00356088544003518
601.6035193390625,0.00679596450277915,0.00030408539407707154,0.0064918791087020785
636.0574909697046,0.017940534088936453,9.03758578232665e-08,0.01794044371307863
639.8748971396583,0.01241950322627466,0.006888044222517494,0.005531459003757166
652.9037415189944,0.003378212316797544,6.368669116319403e-07,0.0033775754498859122
722.6637615976252,0.0001240384648334392,3.669423696212777e-05,8.734422787131143e-05
730.2165254124501,0.00011079178433678954,2.9969881244602344e-08,0.00011076181445554494
738.3011063266993,0.00010920598180795808,1.8442784100370306e-07,0.00010902155396695438
768.6813078504287,0.00010194808756289008,5.935776720250743e-07,0.00010135450989086501
778.4741959547749,0.014025392717876246,0.01162298291856393,0.0024024097993123146
829.7413567117521,0.0005715248943650192,4.814990639677784e-06,0.0005667099037253414
838.7059699875525,0.054870338118484935,0.04937026364586164,0.005500074472623298
872.2288356004073,0.00288498982899896,7.458229060304956e-08,0.002884915246708357
892.3120870858069,0.04751820971432479,0.039792795967240585,0.007725413747084208
911.9938198695095,0.0005808084361917898,9.048060209509504e-08,0.0005807179555896946
942.0092246970099,0.005282394842512115,0.00104040421352737,0.004241990628984745
1001.5304997085941,0.00038670682958017165,1.9173297887381294e-07,0.00038651509660129785
1007.1896165128062,0.00013808929697893673,2.158725196569289e-09,0.00013808713825374017
1023.4815312170971,0.0034009212199335873,0.0024666093640403294,0.0009343118558932578
1026.6253708936492,0.14681848881871573,0.12791896885460585,0.018899519964109886
1027.599034527628,0.018571554799836958,0.01623572898883559,0.002335825811001367
1037.5066662976321,0.005766687075178878,0.0011649957251257824,0.004601691350053096
1063.5447898869759,0.09552666515874621,0.0846422032787737,0.010884461879972511
1069.796095526713,0.029946102920283383,0.02095537719392629,0.008990725726357094
1086.18373917369,0.00427107718788176,0.0015048901164591497,0.0027661870714226103
1086.3753657309078,0.009666545137755857,0.004240043552985219,0.005426501584770639
1089.463599712248,0.046660778350841335,0.0006190913167945992,0.046041687034046735
1117.807915801228,0.16367757571988067,0.09377520590854682,0.06990236981133385
1127.461066707374,0.000559408700784392,4.249711118785422e-06,0.0005551589896656066
1146.6836671812582,0.004150123726658635,9.66973923760553e-07,0.004149156752734874
1163.1383667287262,0.04491063700022057,0.028925096198418897,0.015985540801801673
1175.609290295202,0.01888939587300737,1.541679005943502e-09,0.018889394331328364
1204.789927495666,0.021529158771881236,0.001031787560155618,0.020497371211725617
1231.628337408047,0.01052723345452933,0.008721735962732992,0.0018054974917963373
1234.329418164131,0.0052675432331648914,0.00021026758198849373,0.0050572756511763975
1241.525280548345,0.07651820782303893,0.06403224279220973,0.012485965030829197
1275.4695700460766,0.006735003626564999,0.005051440954389721,0.001683562672175278
1275.990202653885,0.006196940250176206,0.002188774474889615,0.00400816577528659
1308.0778051952323,0.004143667931626686,0.0015218220691649326,0.002621845862461753
1308.4431469342023,0.013636875443994261,0.005054559628974129,0.008582315815020133
1325.3268825060381,0.024035950728072516,3.200871929333252e-07,0.02403563064087958
1327.8058927264954,0.06490683049389626,6.133152076537299e-08,0.06490676916237549
1336.078207044229,0.0029520004581695468,2.408452760724999e-08,0.0029519763736419397
1336.5618301477257,0.0004529789138649791,4.2130251270938965e-06,0.0004487658887378852
1346.1901481838402,0.015254037203536162,0.011445197565109385,0.0038088396384267772
1364.6736929778244,0.00037530213495007487,1.0536968943804153e-06,0.00037424843805569446
1380.1271672306173,0.03325302542847235,0.010040485479408853,0.0232125399490635
1404.578312377487,0.015342861943821938,0.007783178191745618,0.007559683752076321
1419.9054206369522,0.0022816200522184408,1.1256371908863552e-05,0.0022703636803095774
1435.2959044811448,0.005853615201381229,0.0009858690036688336,0.004867746197712395
1457.7064747805805,0.01831694858480774,1.0646427160456962e-05,0.018306302157647284
1480.865274035511,0.005267872470593352,0.0022981411421001525,0.0029697313284932003
1482.2674829988068,0.078102450430004,0.008640128574751398,0.0694623218552526
1485.2225646388777,0.08591859021029725,0.0076525746619143,0.07826601554838296
1492.098055863616,0.001844588008658172,0.0002161779525014687,0.0016284100561567033
1499.141369437634,0.005207831047888341,1.0484009053203181e-07,0.0052077262077978095
1500.6939271108429,0.00984295960971102,2.4603429818145944e-05,0.009818356179892873
1505.9033163239833,0.0010809372343466423,0.00022049688913575492,0.0008604403452108873
1545.8010588662332,0.001630469924072019,0.00041435066939803225,0.0012161192546739869
1662.118291493696,0.03543960809048164,3.489936152792923e-08,0.035439573191120115
1683.8302433347092,0.17567041556068153,0.025883780505156582,0.14978663505552495
1839.540271395394,0.04998920606692374,0.03070093945482429,0.019288266612099453
3023.6990438780895,0.33749613998647976,0.32608245749100895,0.01141368249547079
3026.327032884299,1.0473218541303138,1.034823681166462,0.01249817296385181
3034.1834254263854,0.23732437990519437,0.2327517011679513,0.004572678737243074
3041.721716912764,0.4635029712421161,0.4571639142958436,0.0063390569462725066
3047.775936923668,0.6890655957628392,1.1700421547874644e-05,0.6890538953412914
3052.914129683786,0.2820571601440849,0.24935152388172682,0.032705636262358076
3055.466522776634,0.01627543874712219,5.945821270583007e-05,0.01621598053441636
3060.573436394324,0.9766987801510771,0.9395745849975101,0.037124195153567054
3069.440263278436,0.04307271056723114,0.03612228897086683,0.006950421596364311
3071.62583612644,0.17971992609532308,9.147097833054697e-06,0.17971077899749002
3083.535843920266,0.0034539869156418684,2.2587101390640684e-06,0.0034517282055028043
3092.6956237057384,0.28531694869068863,9.693774430499449e-05,0.28522001094638366
3101.313988661619,0.02878489876805452,2.852994943820185e-07,0.028784613468560136
3112.527892907211,0.004658191919946782,2.3049623527127046e-07,0.004657961423711511
3181.737202754131,0.11781038858300927,0.10334895630889446,0.014461432274114814
3182.44642171736,0.3611648576489978,0.00038811891288165185,0.36077673873611615
3197.818668843162,0.5600338046704277,0.16879547831264408,0.39123832635778366
3206.5652009030164,0.20816520183125337,1.1499693355338466e-06,0.20816405186191783
3219.5699187546106,1.4275471294779916,1.1526881134726448,0.27485901600534685
3798.318622541046,0.4901908863321707,0.3050101448550391,0.18518074147713165
