frequency_cm1,total_intensity,isotropic_intensity,anisotropic_intensity
1.6062496415451315,0.0,0.0,0.0
2.234451246159508e-05,0.0,0.0,0.0
1.2118874096906624e-06,0.0,0.0,0.0
1.730412731531629e-05,0.0,0.0,0.0
1.0193269367176225,0.0,0.0,0.0
1.1986677579291152,0.0,0.0,0.0
11.392920693354297,0.006127167909158747,2.8045149925250803e-05,0.006099122759233496
16.453947748978287,0.007875746105024678,3.8163243229495336e-05,0.007837582861795183
20.139401077260068,0.0012675088214216764,6.620398975675947e-07,0.0012668467815241087
28.409028817495624,0.007613992402845425,0.0002357720507528383,0.007378220352092587
36.83124225271704,0.004016992964191859,0.0002220316727912791,0.0037949612914005794
54.272969960477916,0.010989219895388572,0.0004204260559909102,0.010568793839397662
57.93512414123374,0.002108207992160091,8.466537898532624e-05,0.0020235426131747646
67.19400116517326,0.005323631235156903,0.00010007301583007158,0.0052235582193268315
84.57811131074921,0.005431653026604174,1.8104320887760018e-06,0.0054298425945153985
95.26774460518176,0.0010791612993083573,0.0001235494774991177,0.0009556118218092397
98.33863119283525,0.0010259104308806065,2.866611140596067e-05,0.0009972443194746457
113.96704054199513,0.0027781849469678188,0.00023641441205314058,0.002541770534914678
132.34785760002566,0.005007062327784419,0.004494508954026059,0.0005125533737583603
136.30386851741736,0.000430636336452846,0.0003283593921540923,0.00010227694429875373
145.52333764500037,0.0030473807636842275,0.002806287543347153,0.00024109322033707435
160.25439735592337,0.00025466555778596916,1.6005828098234404e-08,0.0002546495519578709
168.1626148603467,0.00014178243666402793,6.992539818536282e-05,7.18570384786651e-05
174.32003278981082,0.005561868565162586,0.002800773503764381,0.002761095061398205
175.00979279816647,0.003146414795829427,0.0015971847281127593,0.0015492300677166673
217.4450038098544,0.0006266535255486641,0.00021876191753573764,0.0004078916080129264
241.47153967935185,0.0010989426160145494,8.600790494572005e-05,0.0010129347110688293
245.65396104793143,2.4364146903005476e-05,1.6410322999418013e-07,2.4200043673011295e-05
293.6463847323988,0.011723578390672992,0.00043018401357875695,0.011293394377094236
315.0947986764841,0.000639420199893,2.751689943494999e-05,0.00061190330045805
326.31377573622933,0.010189398456781533,0.007053079769760371,0.003136318687021162
368.8411707427159,0.0060208737876116716,0.0002774007691478793,0.005743473018463792
376.0174502600121,0.01028296933660907,0.0033500763561262422,0.006932892980482827
407.0198613319329,0.0011475639762257878,0.00044363027339548613,0.0007039337028303017
423.9790086884188,0.002050888473482437,0.001075184297241853,0.0009757041762405842
426.0236299355689,0.0022673487397135003,0.0012474674901639241,0.001019881249549576
439.7386324854938,0.007612340955356145,0.004491966413011381,0.0031203745423447637
495.08139743745147,0.002980254168258027,0.0013022084976376306,0.0016780456706203969
505.899705906451,0.0002585711017125285,1.4662451530885338e-05,0.00024390865018164315
519.3664562296103,0.0005561627984962227,7.712308975298343e-05,0.00047903970874323934
584.8943315304803,0.008119433378487168,0.0067798400771990576,0.00133959330128811
605.9067013982966,0.0019232580209150546,0.0003791222667986952,0.0015441357541163595
651.6804919952635,0.02369987196265811,0.00023433346603418735,0.023465538496623924
719.8072166524676,0.0034137769658688865,0.0011423354052090434,0.002271441560659843
728.0725363459902,0.00010744651339521568,1.031906245384753e-05,9.712745094136814e-05
729.9238235067896,0.00013603715819431332,8.575947118583922e-05,5.027768700847409e-05
735.1410571043202,0.00013860747699957448,7.103969314908003e-05,6.756778385049445e-05
738.9994326850137,0.019084003149648997,0.012686140541467618,0.006397862608181381
747.88451883884,0.0003560950547224028,0.00023226521978757017,0.00012382983493483259
770.6856417864868,0.0005480948655788965,9.152209528419725e-05,0.0004565727702946992
792.180318751139,0.010484140441762765,0.0028774476051540905,0.007606692836608674
805.2581910074131,0.0005028969086746209,1.3731666881870292e-05,0.0004891652417927506
840.7532617634643,0.0035564050029381605,0.001402304323836078,0.0021541006791020822
851.1923715003605,0.0031425399740064755,0.0023082316611702128,0.0008343083128362627
859.2908696643651,0.17588957180218234,0.15889123167373437,0.01699834012844799
875.6151645740857,0.005680463484563238,0.0051417262276131324,0.0005387372569501057
904.2664842763064,0.0005144208997001631,0.00021778031966612622,0.00029664058003403695
908.2566797305574,0.033893738365212166,0.020700505131506498,0.013193233233705668
959.4362851014507,0.00044281209839132254,7.024342362912517e-05,0.0003725686747621974
990.5380323804535,0.0021192205773358196,0.0012033291737652118,0.000915891403570608
1003.5271269677917,0.0022921775577544124,0.0012850225459303726,0.0010071550118240398
1007.8976626026962,0.0011727249164251797,0.0005905734952966091,0.0005821514211285705
1012.2069085109898,0.0009787479323260097,0.00019577827797361631,0.0007829696543523933
1017.7621498025451,0.0010597196877952205,0.00044940873513133866,0.0006103109526638819
1029.4963972491155,0.01321070649310932,0.0067981433163617115,0.006412563176747608
1039.70951682492,0.0013926554476712876,0.001055762113302371,0.00033689333436891667
1053.6484666413405,0.0026790066715249874,9.497074339539523e-06,0.002669509597185448
1056.313378539503,0.004030300369390395,1.7328470885127197e-05,0.004012971898505267
1062.758018659837,0.004638461854700079,0.0006292688749769958,0.004009192979723083
1072.4790014746916,0.018060119429733554,0.002256122497601298,0.015803996932132258
1086.0011571499283,0.035651304584352644,0.0013385607451743937,0.03431274383917825
1088.9084633435752,0.06128233901938659,0.0006419457752214199,0.06064039324416517
1090.767638909573,0.00941685496953899,1.771628261408967e-05,0.0093991386869249
1092.3729338131166,0.0004130337939006581,0.0003023850955266241,0.00011064869837403397
1119.1045303161675,0.05982872453595485,0.026753253689596485,0.03307547084635837
1133.2313985188234,0.004411310633674434,5.135024683012457e-05,0.00435996038684431
1146.1620439037774,0.041088347191560376,0.03489299668354642,0.0061953505080139535
1157.8242260619577,0.2075514395171047,0.10715069222549611,0.1004007472916086
1189.8667090082508,0.09588254420012599,0.06018113358834739,0.035701410611778596
1194.1576211705437,0.01480768391286566,0.009131328121158556,0.0056763557917071045
1197.4142426934277,0.02209830625243924,0.009985558228267227,0.012112748024172016
1210.5046646742878,0.006843400493142509,0.001807879486645163,0.005035521006497346
1224.7552748096425,0.001150823681777388,0.0007553758121232722,0.0003954478696541158
1236.4299847084303,0.007555738548683025,0.0058222913386299065,0.001733447210053118
1254.8511139605255,0.00016095548246672874,8.295757160846519e-07,0.00016012590675064408
1264.332458290851,0.01425257951016822,0.010161920688396444,0.004090658821771776
1284.6259354282288,0.0016336788629911709,0.001270677320863645,0.0003630015421275259
1289.832831935703,0.034129260854176294,0.024075260742335475,0.010054000111840818
1304.87528005786,0.21294349511313904,0.1504353200748833,0.06250817503825572
1305.6974941737976,0.01814339545410639,0.0005950892379173468,0.017548306216189045
1315.2495995624442,0.014873144755024069,0.00652134739923342,0.008351797355790648
1316.3247805971343,0.014268725268503936,0.007838919630335936,0.006429805638168
1325.6255910085322,0.14928466304278484,0.00016134198498188134,0.14912332105780296
1327.6629800965588,0.011399736747763093,0.004062140470928172,0.007337596276834921
1330.0836921451826,0.025767622394629916,0.011657023842898137,0.01411059855173178
1331.8072295757095,0.0073980547417363,0.0008382674559149636,0.006559787285821336
1335.892096790691,0.013671134753436927,0.0005816933684655573,0.01308944138497137
1338.0804545286946,0.00048239671737446697,5.2387102852737766e-05,0.0004300096145217292
1340.5836331960074,0.0044830063800417215,0.0003398194101871814,0.00414318696985454
1349.2992632708028,0.0038160645025475887,0.0008019572088839856,0.0030141072936636032
1361.8872689364382,0.007973088620385767,0.0006720958306324107,0.007300992789753356
1377.3694572221577,0.003994236041650693,0.0009180976122667287,0.0030761384293839645
1399.753165815984,0.00034155244008531727,0.00019950636104099987,0.0001420460790443174
1412.0877671442838,0.0005702462747536101,0.00025076313203039306,0.00031948314272321705
1414.7646242221088,0.005598696615423732,0.0008744511856343915,0.004724245429789341
1420.3091640550747,0.00711714022357818,0.00012243698943900042,0.00699470323413918
1421.5297458766938,0.003703476002954626,0.00013017591916058917,0.003573300083794037
1426.572334300974,0.0014438766253891796,0.0007921825197117721,0.0006516941056774076
1480.1836301054013,0.005027018384202721,0.0003568296938949401,0.004670188690307781
1480.5861031008164,0.002387942461137186,0.001111811629951667,0.0012761308311855187
1480.6055467194394,0.0020192156117546595,0.0012650137660732703,0.0007542018456813894
1482.4757020214727,0.004057254440101422,0.002441490911826054,0.0016157635282753684
1483.5700002458216,0.04499525814260596,0.003235136894320792,0.04176012124828517
1485.1853728344017,0.18110091650998267,0.014803882368713784,0.1662970341412689
1487.7902844122448,0.0017485813890308253,0.0012903623240870204,0.00045821906494380484
1491.6736729919996,0.03618843928967702,0.0044059017063894515,0.03178253758328757
1493.7519300385375,0.027086684997032137,7.871523814657276e-08,0.02708660628179399
1495.4084507700327,0.005957439775957986,0.0032637445173563126,0.002693695258601674
1499.2649224540203,0.009927276880061852,0.0015673302394363165,0.008359946640625535
1503.2649761191324,0.0018567686268489716,0.0009376916606203595,0.0009190769662286121
1506.076630779645,0.0018235197814838208,2.804263714706493e-05,0.0017954771443367558
1510.9660168420849,0.003849358121054987,0.0027085631451540305,0.0011407949759009563
1564.8610743711388,0.01628206009311354,0.0006340774514589049,0.015647982641654633
1667.40710720895,0.05159464485016967,0.008692163324686421,0.04290248152548325
1685.5919366085293,0.4284942324655846,0.09840345530348162,0.330090777162103
1816.4187135326642,0.24227264329147483,0.1330372137272684,0.10923542956420643
3021.952969944059,0.05790723250014692,0.051242723222211156,0.006664509277935766
3022.6701240298135,0.09579013050054401,0.09067664248084395,0.005113488019700055
3024.4143278189945,0.6318738526411478,0.60147132400454,0.030402528636607883
3024.8831054635566,0.43328747169045223,0.4279537353530079,0.005333736337444304
3026.7056232368705,2.6734801110453565,2.637917985427224,0.03556212561813224
3029.334620573731,0.024387360072746653,0.01982940089117536,0.004557959181571291
3034.6101427560475,0.10706714221892806,0.09854956586828383,0.008517576350644235
3039.368479115856,0.12931341548974112,0.11679684230640107,0.012516573183340048
3041.426139302775,0.3459458127585331,0.3201473743096756,0.0257984384488575
3043.721120753955,1.181627587548281,1.5543958841995145e-05,1.1816120435894388
3045.9709053592715,0.07172993813650345,4.184259267036624e-05,0.07168809554383308
3049.8211288725693,0.3299020543174364,0.0001825217453956041,0.3297195325720408
3050.008242695734,0.9123202165145828,0.9048534236357831,0.007466792878799661
3054.876749456678,0.011984999526010589,0.00046485218230314835,0.01152014734370744
3061.4848058762013,0.5522112216581606,0.4540764995229868,0.09813472213517382
3062.067895827166,0.5920442756311058,0.5233006217495085,0.06874365388159735
3069.3822998406417,0.033753974173537156,0.006963215010160383,0.02679075916337677
3070.128029665809,0.017172308205123724,0.0024429473931001323,0.014729360812023591
3077.916680745077,0.08654378921118519,0.0008535979862270642,0.08569019122495812
3084.6391530810724,0.009167445453216242,0.0005989681237587765,0.008568477329457466
3089.7908178002735,0.01884171850205811,0.0005656458280834178,0.018276072673974693
3103.70929496596,0.23325556697136807,0.03332479339912965,0.1999307735722384
3112.933764945387,0.12869910574554022,6.407894550992027e-07,0.1286984649560851
3121.1663924872655,0.41042122687398397,0.0631422920502167,0.34727893482376726
3130.0973279751183,0.043121386818237864,0.007668956177729138,0.03545243064050872
3187.4850815995997,0.4147607944574273,0.18482756817528925,0.22993322628213805
3221.772076413915,0.1878211160649406,0.03809438423771871,0.14972673182722188
3224.005272466915,0.4174605758410848,0.2366924701649994,0.18076810567608542
3237.0181900553625,0.6324207204930938,0.5010321981404594,0.1313885223526344
3859.7809396233915,0.6394286859498847,0.40368558842136043,0.23574309752852424
