frequency_cm1,total_intensity,isotropic_intensity,anisotropic_intensity
0.9962550681996876,0.0,0.0,0.0
2.5965701230965973e-05,0.0,0.0,0.0
8.332339187924805e-06,0.0,0.0,0.0
3.8187159375587284e-05,0.0,0.0,0.0
0.29068532124458407,0.0,0.0,0.0
2.030712641617721,0.0,0.0,0.0
20.118802711345577,0.01393337858158522,9.088003435195422e-05,0.013842498547233267
27.29220537792934,0.012771745703742104,5.147958871951648e-07,0.012771230907854909
44.772652853360476,0.01042896117440345,0.0007166382150248568,0.009712322959378595
86.21864831693684,0.0011017444772430198,4.7686145615824815e-05,0.001054058331627195
139.50558701105186,0.008213653385197785,0.0008597919224423484,0.007353861462755436
147.53701223987576,0.0015863330367923373,7.439722872026548e-05,0.0015119358080720718
198.1067225862955,0.007332365305742655,1.0392918750747621e-05,0.007321972386991907
227.50965228700886,0.0012621951286306285,0.0005071105272810943,0.0007550846013495343
232.26533629362046,0.0005045011160222906,0.00011059503348518325,0.0003939060825371074
236.0335122162346,0.0033712049018190093,0.0018542360074142034,0.001516968894404806
252.56412191322784,0.004449769458772993,0.0019951384058929057,0.002454631052880087
282.52233182039026,0.0019113604997171053,0.0003236306378492527,0.0015877298618678527
328.9470081351801,0.0031929727811158804,5.325208675732357e-05,0.0031397206943585567
342.0998321257338,0.005644148901462878,0.002395498662025091,0.0032486502394377874
352.49889294016003,0.0012454439023891338,0.00019916293625967977,0.0010462809661294541
418.1582867985116,0.00013726353713630596,7.10896277402854e-05,6.617390939602056e-05
451.4222261489494,0.0009102024142981658,4.772419471081266e-05,0.0008624782195873531
458.03611865282795,0.013224332729775702,0.005694276000745075,0.007530056729030627
470.43339784690204,0.01192786205280846,0.008404022408519816,0.003523839644288644
477.5881135413581,0.006232412648092761,0.001533393498851919,0.004699019149240842
508.4251666502829,0.004082152313709797,0.002529130714693847,0.0015530215990159498
523.7141541878233,0.02322556061699338,0.015611577559443722,0.007613983057549659
576.6869801426659,0.007805415767689736,0.0007341129850928516,0.007071302782596885
628.4148999865721,0.03411270933357589,0.020162747591592083,0.013949961741983805
640.986709629175,0.02559156561660331,0.015485978489406903,0.010105587127196407
720.14407235398,0.0012410370208929221,6.193393555141542e-05,0.0011791030853415068
737.4607482854566,0.0035114651136163686,0.00024656382999829345,0.003264901283618075
781.8631049336335,0.004043971439182018,0.000856723733850819,0.0031872477053311995
810.0464290699927,0.024652922387395245,0.014337600157741562,0.010315322229653683
851.682961348829,0.12544488725798006,0.11596969106594479,0.009475196192035271
861.5486786580867,0.00974302577639349,0.0025410341540468995,0.00720199162234659
875.4230414630724,0.0032474628058183426,3.024215550883286e-05,0.0032172206503095096
893.8814613185255,0.010176618106930081,0.0003950195732611757,0.009781598533668905
917.999802642342,0.009516390717075862,0.0022571754193682174,0.007259215297707644
939.9772372402281,0.0032763169493627998,0.00018153470360615935,0.0030947822457566406
949.1764216307963,0.007903278618948434,0.0017004897497348665,0.0062027888692135665
951.7756609850684,0.009867516295430158,0.0016599922827438148,0.008207524012686342
972.5835637934372,0.01008654672681374,0.0012208672254792427,0.008865679501334496
996.2522998993638,0.0074706394235742315,0.002341678211758216,0.005128961211816016
1010.0557640986594,6.684531310383615e-05,4.331528648120425e-05,2.3530026622631908e-05
1017.2407035156098,0.0020056103210087544,0.0001825894416136027,0.0018230208793951516
1022.6207611944585,0.03335631224692859,0.02121737761795192,0.012138934628976665
1027.7984522233292,0.11268062936875006,0.0990931462077697,0.013587483160980362
1028.1701107288354,0.025246129119048614,0.02245226278665577,0.0027938663323928458
1064.3511070035179,0.09132745888051047,0.08286173396411292,0.008465724916397546
1076.9870734075782,0.006618767657093532,0.0004665595584007637,0.006152208098692768
1111.9841343494654,0.002257139401145607,0.0010975154798123525,0.0011596239213332547
1123.1200658290581,0.015484906738783846,0.0032611906352956197,0.012223716103488226
1166.6316278209317,0.01654796003072984,0.0004651537601676368,0.016082806270562203
1175.5717297384738,0.017922443683846108,0.0009721225769011243,0.016950321106944985
1184.9803595380265,0.012577515371818214,0.00406439001789103,0.008513125353927184
1205.798225335518,0.023678249859525106,0.0033527841637204067,0.0203254656958047
1210.8095008373095,0.0297752141656416,3.0243353210297737e-06,0.02977218983032057
1229.9711024148319,0.05965282038728291,0.05031803041522153,0.009334789972061377
1235.403718455417,0.051251685139656944,0.0193909890030427,0.03186069613661425
1252.3898985851745,0.02574339033144171,4.647077466030585e-05,0.025696919556781404
1299.9916445897948,0.01621698509264366,0.0030579985239084255,0.013158986568735234
1302.9869980718815,0.020844281051347825,0.002529666525725669,0.018314614525622157
1315.9524898389323,0.006417017268356803,0.0025759437488092657,0.0038410735195475365
1336.7268540696316,0.019805138285915642,0.008090193743436528,0.011714944542479113
1343.7729312847487,0.014610171824363647,0.0019154063713725908,0.012694765452991056
1366.824216935586,0.005981688365160441,0.0007627660244271281,0.005218922340733312
1388.0714698383817,0.010379549260042071,0.0015241203098773116,0.00885542895016476
1394.4041161824905,0.001641579871442552,3.9411690318742465e-07,0.0016411857545393647
1408.745180869437,0.009230048811377648,0.0007151729622988233,0.008514875849078824
1411.8942974574184,0.0021796533411234504,0.0003316612463464048,0.0018479920947770457
1425.1068928773284,0.008761821512111431,0.0005325315322641577,0.008229289979847274
1467.3310532958749,0.0028578285634176114,1.5208445106801857e-08,0.0028578133549725044
1472.1895780464245,0.0632009107123453,0.00038590420535282335,0.06281500650699248
1475.7837801896303,0.037713520046042226,0.0015938707145054763,0.036119649331536746
1482.7740120525766,0.029534680995859618,3.35169374876252e-05,0.02950116405837199
1486.7116277503528,0.005249116091159563,2.196868627839451e-05,0.005227147404881169
1491.1544213680584,0.027719352199552582,0.0007721909440880071,0.026947161255464574
1494.3382055696643,0.014766089569968109,7.2667032974211725e-06,0.014758822866670688
1500.8525042718475,0.003813999552215852,4.441474949414113e-05,0.0037695848027217106
1503.4444713814116,0.01327817840284589,0.000726339154670876,0.012551839248175014
1544.2530119453804,0.001465571632277082,0.0008138100999622862,0.0006517615323147959
1663.5180068998175,0.04079726796664325,0.0008916663368788868,0.039905601629764365
1683.2475245107114,0.1371598439620655,0.013778959999631486,0.12338088396243399
1755.7212394186467,0.15463085342761823,0.09706648776898535,0.05756436565863286
3048.848716414409,0.16880710944443744,0.03362833866719932,0.1351787707772381
3053.124125554095,0.2565363338844096,0.23927194843696353,0.017264385447446056
3059.099522114121,0.4037302012889637,0.3281123884678053,0.07561781282115836
3060.459451348103,1.2406988236493042,1.208631058830976,0.032067764818328015
3065.4253600504358,1.12500414496474,1.1091180311407698,0.015886113823970257
3090.352072599181,0.494646981339285,0.43529435607095784,0.05935262526832712
3107.356989109716,0.2432042102813896,0.09818597581405425,0.14501823446733536
3123.975916902377,0.17479567205612354,0.0029471214770704244,0.1718485505790531
3130.096839402638,0.41374659234220024,0.008062702352382286,0.40568388998981797
3134.9112667003037,0.2876791737310244,0.010779552720864598,0.2768996210101598
3138.613995673353,0.08004360569779398,0.0035789032971141944,0.07646470240067979
3142.9301620513465,0.35093769005164177,0.007605510230070488,0.34333217982157127
3145.8778205205126,0.25020606257731937,0.016260712637471128,0.23394534993984825
3151.278108879777,0.24664695842977202,0.06135143492907284,0.18529552350069917
3187.6104488007427,0.0708369063225444,0.02584052985265758,0.04499637646988682
3191.1437357009936,0.4033134710273153,0.0016201257909146615,0.40169334523640066
3200.3978013080227,0.4582790616876366,0.14128464643659988,0.3169944152510367
3208.4762035770905,0.11810070664975351,0.0002568149388897022,0.11784389171086382
3218.911029471125,1.4298637503653513,1.1669985605948703,0.2628651897704811
