frequency_cm1,total_intensity,isotropic_intensity,anisotropic_intensity
1.661680348215956,0.0,0.0,0.0
0.8491798311431782,0.0,0.0,0.0
2.9426959208023322e-05,0.0,0.0,0.0
1.288990663948679e-05,0.0,0.0,0.0
3.534282516846185e-05,0.0,0.0,0.0
1.7068143716856863,0.0,0.0,0.0
12.883400760600553,0.0019732855768831562,8.930645982626663e-08,0.00197319627042333
28.61849707001542,0.0016735019054152696,1.9126099642961077e-06,0.0016715892954509736
55.27635583420958,0.0037084326431421947,0.0005079480734730427,0.003200484569669152
67.8772833087246,0.0050242593829954284,5.8013573809898266e-05,0.00496624580918553
75.65961299377999,0.010129377690256056,0.00017229070938843508,0.00995708698086762
93.28168069266401,0.0020984148773465845,8.05240387009597e-07,0.0020976096369595748
121.5936698271686,0.006876137972789918,1.6170013135791625e-06,0.006874520971476339
169.36494361531058,0.001123900773288302,0.00035790257821399356,0.0007659981950743085
211.9616032302718,0.0022276281632424176,0.0015294160792584724,0.0006982120839839449
228.3699769147288,0.00979895087270914,0.008536443235664277,0.0012625076370448632
285.48369028098955,0.0004893860782763454,2.385405211126982e-06,0.0004870006730652185
322.80648088865166,0.003332314066668617,0.0017405851464209747,0.0015917289202476426
342.5243793761323,0.002140924776018124,0.0002617912831297424,0.0018791334928883816
359.5002681594789,0.006720429655235541,0.0025503225419134857,0.004170107113322055
405.3948656312248,0.0053850784044941966,0.0018749222301248747,0.0035101561743693215
416.0868050297912,0.006690115073327821,0.006042656851329893,0.0006474582219979282
467.1659160903541,0.0035455537151737795,0.000653848590734134,0.0028917051244396457
476.5705491394944,0.004597841418065232,8.80773154305155e-06,0.00458903368652218
514.2528308241233,0.0029209875342804037,0.00033270212426226024,0.0025882854100181436
585.586650907132,0.0008265017193980236,4.202431890154744e-06,0.0008222992875078688
612.3373942440402,0.0024577672007956393,0.00049099584848603,0.0019667713523096094
661.7893345910728,0.002841350095415473,4.431115091237132e-05,0.002797038944503102
721.980858489516,0.009883040220815768,0.004461260417049625,0.005421779803766142
777.4229468399881,0.015336673378348304,0.01120198080361747,0.004134692574730835
796.5191177095246,0.004216622602622123,0.0006447221693995774,0.0035719004332225458
816.549309165134,0.06295734396903384,0.057000508759466155,0.005956835209567688
844.9257249903479,0.021200429410430863,0.016623842700279546,0.0045765867101513185
870.7645300507475,0.0184897249264344,0.014769095946246922,0.0037206289801874773
883.0285900616134,0.021953503355561642,0.013492140504097909,0.008461362851463735
900.2052266255265,0.07033594720382734,0.04515544746486118,0.025180499738966165
940.5790338597064,0.0036595568432543656,1.5351880669687413e-05,0.003644204962584678
949.5121493646284,0.0014583927780885057,1.6626574613612737e-05,0.001441766203474893
979.7670391905549,0.011426038300876726,0.00579404720000478,0.005631991100871946
985.8727469711486,0.006913715326720171,0.00010746549540824873,0.006806249831311922
992.245897818159,0.0030455826893812012,0.00016413434616523498,0.002881448343215966
999.1235556465656,0.05606221294003552,0.041857284089355316,0.014204928850680205
1028.9313738791714,0.02480662396022285,0.0006635604277989527,0.024143063532423896
1049.021280686873,0.005236099614476145,2.677697622728535e-05,0.005209322638248859
1051.8697365821322,0.010974934584229112,0.002889854083346206,0.008085080500882906
1055.4415403554817,0.03174091675638033,0.0006835793647615578,0.031057337391618773
1070.3620893421441,0.02726598551249864,0.002412139017974298,0.024853846494524344
1096.545456802966,0.016113288400409775,0.00754115495490412,0.008572133445505656
1108.8815697050586,0.0048135342884886145,0.0007604217410881427,0.0040531125474004715
1135.8765611837123,0.0006632729696286548,6.57885852115422e-06,0.0006566941111075006
1156.1585205322278,0.009977251034770549,0.0021439892917024645,0.007833261743068084
1172.5031791127951,0.013221490895720492,0.0013733094825535894,0.011848181413166903
1187.4581255863088,0.010030016693337087,0.0005393548130787658,0.00949066188025832
1201.2532373559313,0.005582762132386507,0.0006605359552293548,0.004922226177157152
1210.5447790089042,0.007757675653281535,0.0013388296924574448,0.00641884596082409
1272.4726120482003,0.0057547645185229545,0.004768387091702252,0.0009863774268207026
1293.2865286744802,0.04008851406052959,0.00017365325225837498,0.03991486080827121
1297.815486172517,0.013722211622800734,0.00012097664205204906,0.013601234980748686
1301.254163790878,0.050362974477797,2.4676558515421512e-06,0.05036050682194546
1309.2791556532018,0.08984774144078424,0.01982875844007255,0.07001898300071169
1316.8693469857983,0.022952308887306302,0.010346763537570367,0.012605545349735934
1321.304064863805,0.06638804870615247,0.034502081116310285,0.0318859675898422
1352.387279190703,0.0010883497479832825,5.2885829800848774e-05,0.0010354639181824337
1364.574143008548,0.0030794360982707926,5.563854188482969e-06,0.0030738722440823095
1373.9891958266278,0.02599911924532929,0.0009983615696925502,0.02500075767563674
1385.9253606561324,0.004688257366711582,0.00014395657034005588,0.004544300796371525
1388.3161373015216,0.003146639088061277,0.0014676033287767578,0.0016790357592845193
1390.2406957264827,0.005942543107532215,0.0012131963633967586,0.004729346744135456
1394.174781428082,0.012983404734008866,0.0027666025618979986,0.010216802172110868
1406.6960146951942,0.00285987408716015,0.00011587909303953841,0.0027439949941206114
1427.4907290700453,0.004802186622447381,0.000523343411078709,0.004278843211368672
1459.8512916679017,0.045980017365419464,0.01678872313728055,0.029191294228138914
1459.9593219749213,0.0375874782426974,0.003759120848207421,0.03382835739448998
1480.9765367370997,0.0565178164470897,9.441375385938156e-07,0.0565168723095511
1483.436749583613,0.03704333113624996,1.743058752562451e-05,0.03702590054872434
1484.3590656701012,0.05106694164815279,0.011787732588313525,0.03927920905983927
1486.9157195098373,0.01483520536460535,0.0002628472454764834,0.014572358119128867
1495.2838322911102,0.0015546105320413792,0.001167319178059015,0.0003872913539823641
1502.2380467388962,0.006291705046721782,0.0012926604206028702,0.004999044626118911
1508.6006016829615,0.020974618001784285,5.165030239109829e-05,0.020922967699393186
1739.7602805574898,0.24971245513162466,0.2024963808704155,0.04721607426120916
1816.0933118210007,0.028853540837845137,0.022553721311994925,0.006299819525850212
3023.9717528286856,0.26505699150976664,0.0009336179356935515,0.26412337357407306
3029.8113235507462,0.6956283768391727,0.4841946513566293,0.21143372548254338
3037.317402105501,0.11925716401502161,0.07040308590778445,0.04885407810723716
3044.420916071451,1.0063181418020615,0.8065329966127199,0.19978514518934165
3048.206731781162,0.42783086952978655,0.281145000656685,0.14668586887310153
3048.8492188269256,0.309020409798781,0.15065116033058662,0.1583692494681944
3064.728346856017,0.877902706183142,0.8264766567835519,0.05142604939959018
3076.3716447758447,0.1489345572647408,0.136248164529379,0.012686392735361821
3082.137493726016,0.438636861645084,0.17829454715967033,0.2603423144854136
3086.9368941056314,0.11807356932620824,0.03474461829802365,0.08332895102818459
3087.512149553175,0.3994486619194644,0.31984127478049945,0.07960738713896495
3088.050137627804,0.8298886310413665,0.5514120418087033,0.2784765892326631
3089.7262483476334,1.0971370398007905,0.646599162160238,0.4505378776405525
3095.2867441000644,0.1152647284015674,0.013630999493243168,0.10163372890832423
3105.44040029831,0.3308229287726112,0.06933542941887064,0.2614874993537406
3122.065426116445,0.02910410391029332,0.01832338974893147,0.01078071416136185
3153.8617375846484,0.14174892057051988,0.019416658461962295,0.12233226210855758
3157.4997154594107,0.6732119646251296,0.46578060108378855,0.20743136354134106
3198.2348885707324,0.27340964511173643,0.16013433099459057,0.11327531411714586
3244.6994567918764,0.33536053855248715,0.044266910652197164,0.29109362790029
