frequency_cm1,total_intensity,isotropic_intensity,anisotropic_intensity
1.542083385767006,0.0,0.0,0.0
0.9699997372095148,0.0,0.0,0.0
9.146745240772784e-06,0.0,0.0,0.0
1.021804740680886e-05,0.0,0.0,0.0
2.8230945112889493e-05,0.0,0.0,0.0
1.396597606246346,0.0,0.0,0.0
39.45587492257801,0.007507304140830409,6.854089521911753e-10,0.007507303455421457
70.91688953850576,0.002345211306449703,3.685223948349045e-10,0.0023452109379273082
78.88068644985452,0.005872622420473419,6.423828035089574e-10,0.005872621778090616
137.30498992298155,0.007104541379697361,9.188602845103889e-09,0.007104532191094516
146.95627391933442,0.006087895261360931,0.0006569769000620357,0.005430918361298895
160.6761185301681,0.00013729886953959595,4.413903414271004e-11,0.0001372988254005618
183.61619124000086,0.0073914764682292316,3.5560122322350765e-10,0.007391476112628009
220.99641928905316,0.003376381921760813,0.0002464156087006148,0.003129966313060198
250.47821378437396,0.0005574586333970963,1.4210886454922603e-08,0.0005574444225106414
287.0823587517401,0.04040362876444223,0.009071378179406585,0.031332250585035644
297.2710237538338,0.0002567610629633006,4.2964133569007504e-08,0.0002567180988297316
338.85549966728894,0.0043662279977739,3.4274833696925154e-08,0.004366193722940203
346.7951528780617,0.07366494987447587,0.06291935173325124,0.010745598141224633
408.8220779638179,0.019619345325728343,0.0006952380890865895,0.018924107236641754
411.1052168297455,0.007367674038231505,1.928424473396527e-07,0.007367481195784165
442.13898355089555,5.987867004713405e-05,1.5918563452392581e-09,5.987707819078881e-05
457.33843657347614,0.004783956453445705,7.74799435522021e-06,0.004776208459090485
494.44415381724247,0.0029527516909197203,3.11929815190019e-08,0.0029527204979382013
506.64564249574414,0.005468765876817355,0.002855209929182414,0.0026135559476349406
544.5631156056603,0.04601288769917122,0.021698098687078872,0.024314789012092355
557.2334157631748,0.003457102558155768,6.029391205432221e-09,0.0034570965287645623
572.3471562098571,0.00014656365190162415,4.994189954673201e-08,0.00014651371000207742
579.561791038095,0.01323319247519256,0.00489596864915961,0.00833722382603295
605.1553368601922,0.0016402254819904856,6.661125488449367e-05,0.001573614227105992
605.221280834581,0.005014080908356688,0.0002971520759447229,0.004716928832411965
660.6621411357304,0.02045042401212948,0.011755064956463654,0.008695359055665828
699.959894033638,0.000892031311361879,3.140221068972378e-08,0.0008919999091511893
702.7364222997884,0.051288285947342756,0.028502244460910785,0.02278604148643197
759.9085811251311,0.0015650604888457489,4.3716632050864026e-08,0.001565016772213698
766.7913704913618,0.0019655470070798213,3.9367469870080136e-08,0.0019655076396099514
786.710039978191,6.242996501781412e-05,1.5698292744055895e-06,6.0860135743408535e-05
788.1304589415798,0.04274411338414229,0.035632924648793265,0.00711118873534902
790.2127330462267,0.1041353292348578,0.08590380100143945,0.018231528233418358
804.0481516304425,0.00033767717003794037,1.4900722177078765e-09,0.0003376756799657227
819.3970899429634,0.0045825623386337765,1.6760605084131424e-09,0.004582560662573268
848.5219063486747,0.0038054595841975547,3.664352753449896e-09,0.003805455919844801
891.7539502479757,0.006982881383840268,0.003098469800125045,0.0038844115837152232
893.1320098102161,0.00014215600037546734,1.1323406982883055e-08,0.00014214467696848447
898.8621555239274,0.0012545096249892177,1.7840111675551807e-08,0.0012544917848775422
905.3233113520978,0.03138731892471711,0.01173337380940817,0.019653945115308942
906.2287589200454,0.004403858847413614,5.550739902242847e-07,0.0044033037734233895
979.8153005262743,0.032707835090347255,0.003964854323053093,0.02874298076729416
988.4092968701945,0.010050242009344684,1.5984882841434634e-09,0.0100502404108564
992.8658713599409,9.406686916349444e-05,7.933543143610716e-09,9.405893562035082e-05
1001.2516462061102,0.001637718143063147,9.48335468533781e-10,0.0016377171947276785
1021.8465499503708,0.0001359540854158642,6.313485866043074e-10,0.00013595345406727758
1023.2635527469494,0.00017017798905329763,1.7383372195050046e-09,0.00017017625071607813
1044.6973626050103,0.17270182135506756,0.11763996930357405,0.05506185205149352
1065.4892155399693,0.11962694596326545,0.08232682234521556,0.037300123618049894
1072.7333120240837,0.02597192522315513,0.01893804751788107,0.007033877705274059
1078.6469505402044,0.1569558041266396,0.11001910852356758,0.04693669560307201
1105.9670601741539,0.042459740954904845,0.03228129295272342,0.01017844800218143
1106.7360424485798,0.0027280227236216995,1.499209043000613e-07,0.0027278728027173996
1133.455971632643,0.007782130016469297,0.006540757627318406,0.0012413723891508911
1165.8369445717326,0.023781808246508614,0.0008862384039374901,0.022895569842571125
1181.0800370137933,0.05916631775915885,0.0010775284313636556,0.058088789327795196
1186.8307982925314,0.007745675043106323,5.29479693021244e-06,0.007740380246176111
1204.8423253607275,0.09502056548662996,0.032297828425955,0.06272273706067497
1211.9533972236625,0.012324027211295276,0.0009378951539324138,0.011386132057362863
1250.2527980222892,0.18988266042081248,0.06116792370694717,0.1287147367138653
1268.2092352441337,0.008660765736725286,0.004630490031872842,0.004030275704852443
1279.8973629302077,0.01876352386702139,0.003110310440658109,0.01565321342636328
1289.6740297719818,0.03876658676652734,0.001277662311557999,0.03748892445496934
1303.9646941378212,0.012942887406336989,5.868449062491987e-11,0.012942887347652497
1331.1115587821143,0.0017218729012453138,8.329605893454488e-05,0.001638576842310769
1361.4685203311888,0.19029996046693712,0.11818424974330884,0.07211571072362828
1369.524274280583,0.6334135751473315,0.324309542887945,0.3091040322593866
1397.6841408710284,0.004028413351644059,2.1254646738030792e-07,0.004028200805176679
1412.633556308278,0.03309674700400512,0.007619109903232952,0.02547763710077217
1419.7114454577033,0.33800548884406423,0.23396806460429095,0.10403742423977325
1446.1508358578444,3.847183321349621,2.091166247910919,1.7560170734387015
1456.4070819408892,0.7082922346795897,0.40726428238378465,0.3010279522958051
1477.3239344629665,1.7208509993319698,0.9600468307221623,0.7608041686098075
1484.5184036513474,0.20331104958947588,0.10063059079081522,0.10268045879866064
1489.2297814017177,0.35264372509245245,0.19344371574964,0.15920000934281245
1494.5853690832093,0.03667907441967436,7.053969328587985e-07,0.0366783690227415
1495.733257720916,0.7452186691246111,0.47392779763653226,0.27129087148807884
1504.9250396522684,0.07428801724528729,0.06445485185038625,0.009833165394901035
1534.1057610383932,0.09601372524358359,0.06509046788562359,0.03092325735796001
1575.5689100477243,0.040776750712719564,0.017435810417625375,0.02334094029509419
1591.7805453280826,0.02397118711281581,0.015514636671350019,0.008456550441465793
1655.7812541360945,0.4860446330485829,0.008654455805102589,0.4773901772434803
1681.9003346189472,0.09867794919319968,0.028113400306142733,0.07056454888705695
1689.8428448187299,0.557321297644917,0.17456471778832458,0.38275657985659245
1704.1545189471692,0.09717484040811883,0.02361902440931845,0.07355581599880039
1716.769563489523,0.38733852184860385,0.09694249272244551,0.29039602912615836
3041.741682195616,0.9425833945323855,0.8132029720920376,0.12938042244034784
3058.1124170815974,0.7488049905247789,0.7086809616647011,0.04012402886007778
3072.7239746310925,0.33277252700586946,1.2943889338245238e-07,0.3327723975669761
3123.3467864030267,0.10056217295321061,1.1955112926466294e-07,0.10056205340208135
3128.7605019371185,0.5756167091764673,0.14408647204712852,0.43153023712933886
3188.248724961671,0.05811658493705593,0.004589818692781058,0.053526766244274875
3193.7696281959147,0.4691279521998453,0.1907789904905594,0.2783489617092859
3197.2530091367034,0.459151205688476,0.03063397462221626,0.4285172310662598
3199.700184212003,0.46229909172619843,0.00171035194543567,0.46058873978076276
3211.1464010569966,0.9099528542012928,0.43571631680621836,0.47423653739507443
3216.6043263447905,1.343903061992624,0.8287722571289093,0.5151308048637148
3228.0864650404105,0.02232486281128334,0.005445577989089892,0.016879284822193447
3231.2834670393463,0.8635540797129052,0.6952267462326408,0.16832733348026443
3231.7247803187106,0.16697652210332165,0.08579854168689008,0.08117798041643155
3248.3296895687085,0.7828794978074824,0.5848857587517025,0.19799373905578005
3264.3873603719544,0.36686872330465103,0.26223377591160607,0.10463494739304499
