frequency_cm1,total_intensity,isotropic_intensity,anisotropic_intensity
2.4521454290438487,0.0,0.0,0.0
3.180282924114482e-05,0.0,0.0,0.0
6.030329173593709e-06,0.0,0.0,0.0
1.4248557920259057e-05,0.0,0.0,0.0
1.0255475203335356,0.0,0.0,0.0
1.2083410715262362,0.0,0.0,0.0
12.89963806323433,0.00015407929998199075,1.4738595005230958e-06,0.00015260544048146765
19.209191824587844,0.0006324148377330754,4.371558489265566e-06,0.0006280432792438098
22.973093305962202,0.00017279622081111328,7.976020118039053e-09,0.00017278824479099525
31.400924648085905,0.001266303151145756,8.088302915492536e-06,0.0012582148482302635
52.13389692237257,0.00021078727134914293,8.298315538721863e-06,0.00020248895581042106
59.848533591849844,0.0008118645634436904,1.0294842903579959e-05,0.0008015697205401105
63.31387106623357,0.00019387268597976224,3.376537582406126e-05,0.00016010731015570097
90.64243522080804,0.0012088188458019805,8.32216608987604e-05,0.00112559718490322
94.87877677618918,0.00020698605994879017,1.5468264912082388e-07,0.00020683137729966933
100.60076194777668,0.0020500799048645654,0.0010969176458335275,0.0009531622590310378
121.50522509464153,0.0018597872931018938,0.0008802649104209309,0.000979522382680963
126.16174246002223,0.000634151269866063,0.0002386330731761515,0.00039551819668991146
135.62098348954711,0.0002564697081561052,0.00015749743928245662,9.897226887364862e-05
146.2235913802998,0.011083480416915068,0.007079135421892476,0.004004344995022591
153.42523295883106,0.00360554210672653,0.002226569846968427,0.0013789722597581028
167.96267148602388,1.3236098672091053e-05,8.430434961876782e-06,4.80566371021427e-06
173.7234422716466,8.583918231131229e-05,1.4691532236692663e-05,7.114765007461962e-05
188.39937686340122,0.0004119258842087613,3.6888333416828777e-05,0.0003750375507919325
224.7874238651152,0.00029319169489328126,4.234226287558477e-05,0.0002508494320176965
245.66217867457942,2.131405212487703e-05,1.044249380529954e-09,2.13130078754965e-05
280.13471466947624,0.00018943843126932377,1.7795600195010535e-05,0.00017164283107431324
288.7198671353341,0.0007795939586539205,0.00011014847590423523,0.0006694454827496853
339.21341894141864,0.0017463945645862192,0.0010478343477101585,0.0006985602168760607
373.91648030212866,0.0031596090012448335,0.0020578757566929095,0.001101733244551924
407.600578688676,0.003208327744689981,0.0021192648730444224,0.001089062871645559
434.38829981387534,0.0020065961322228813,0.0007230649457864606,0.0012835311864364206
474.2512181483666,0.003907068111419465,0.0016560047612880395,0.0022510633501314254
504.77058424603337,0.0002807677002284346,6.468680263440661e-05,0.00021608089759402797
524.8438704307908,0.0024589770276879294,0.0013516228462543466,0.0011073541814335826
591.726420897387,0.000769573643239456,1.5425148374195039e-06,0.0007680311284020365
703.2995569193913,0.0034974293747874765,8.799328172211468e-05,0.003409436093065362
728.0129510435344,6.514458734350036e-05,8.19176080244486e-07,6.432541126325588e-05
729.2204070779252,2.505987499024379e-05,1.0877707374494065e-06,2.3972104252794382e-05
733.0886069022416,0.0001018184068885039,2.756556345509047e-07,0.00010154275125395299
744.3070152839531,3.0506714146342535e-05,1.293170749421314e-06,2.921354339692122e-05
766.9742503239275,0.00033859778748331835,2.3523737183812757e-06,0.00033624541376493707
802.4850663166727,0.00014768607670876383,5.8779054590894834e-05,8.8907022117869e-05
806.8869822164852,0.008143758229239916,0.004070748165843236,0.004073010063396681
847.7783593992609,0.00047788878813426184,5.130949858896284e-06,0.00047275783827536555
884.9524355588669,0.045112225943725506,0.03403370170012129,0.011078524243604216
899.9993338362108,0.00018252327013736801,9.678773674122924e-05,8.573553339613877e-05
908.2102571577683,0.03230142088131166,0.019631674534274533,0.012669746347037127
937.7193027224351,0.019633813457297283,0.008223374499896288,0.011410438957400997
955.0360427346349,0.00020474743695846217,4.987576005119302e-07,0.00020424867935795024
1007.7259820738612,0.000122622221585186,5.093919781513888e-06,0.00011752830180367213
1010.6187272086144,0.0016996216323467595,9.504273833834552e-05,0.001604578894008414
1016.6541397230064,0.002836900743756696,0.002269465631936608,0.0005674351118200879
1041.4776017885865,0.0066511928285647795,0.0013877566837442832,0.0052634361448204965
1051.4722385706448,0.009445549494473246,0.005294352273861165,0.004151197220612081
1052.575617496164,0.003111528777347136,0.0018890271853590043,0.0012225015919881317
1063.8713681821423,0.011348716538987877,0.0027213866273072007,0.008627329911680677
1076.4766483015662,0.004451243015303866,0.0005172433261228298,0.0039339996891810365
1087.1101531050451,0.0635554262470789,0.0034788476766155333,0.06007657857046336
1089.8141536596386,0.046175751117196184,0.006728007792498392,0.03944774332469779
1090.9569393337667,0.005849594821366805,9.54188441691821e-05,0.0057541759771976226
1092.1113293492385,0.0024675017888406655,0.0010871100713830098,0.0013803917174576557
1117.3381547586882,0.023520276039910953,0.0022022104555157363,0.021318065584395217
1124.7967008511982,0.036076125877136614,0.02837115510678146,0.007704970770355156
1142.9612378300078,0.0035774442790422033,7.136818943317047e-06,0.0035703074600988865
1156.2483989568484,0.22474262038622894,0.1323830854284914,0.09235953495773756
1190.6927716127327,0.005580853835296301,0.000836241704255673,0.0047446121310406285
1206.7748453614356,0.010451240820474484,3.7232985531329686e-06,0.010447517521921352
1207.3068036210568,0.006203551685287485,0.00521717268960275,0.0009863789956847347
1228.1732525815826,0.0007065208726782643,2.5850321298186504e-05,0.0006806705513800777
1230.21489233069,0.0011917486859946245,6.089765156721027e-07,0.0011911397094789523
1257.9103166355899,0.00028377249264812787,0.00010589340766912315,0.0001778790849790047
1258.3789819514488,0.0011545318432572736,1.7828392159160613e-05,0.001136703451098113
1285.2941217176449,0.000286025051048606,2.514958415745257e-08,0.00028599990146444855
1287.7060787837952,0.0008204398879214653,0.00023386286671645064,0.0005865770212050147
1307.3790592108678,0.0065052832580303095,1.9001306166659163e-08,0.006505264256724143
1317.5569538593868,0.0006808154149423362,1.014834025485391e-07,0.0006807139315397877
1322.8214394153852,0.008197544697864484,3.872632921153007e-07,0.00819715743457237
1325.5439377405125,0.14089001028647308,5.722615716087673e-07,0.14088943802490148
1331.494412948695,0.0009610979471455245,5.535758896491362e-07,0.0009605443712558754
1333.39769631269,0.002813338121437147,1.6606095485974816e-05,0.0027967320259511723
1333.523579815785,0.013385975611651713,0.00017633461744221272,0.013209640994209501
1337.8707190355158,0.0037414620615099127,2.5124115656064457e-07,0.003741210820353352
1338.297874549385,0.0016035574315764142,7.500594048312008e-07,0.001602807372171583
1347.9838973712065,0.001044224709949607,0.00044194573464784463,0.0006022789753017623
1373.751061335284,0.00040288535035419045,4.783977543293857e-05,0.0003550455749212519
1393.6294303644765,0.00036237153104366776,4.6201126772876966e-05,0.0003161704042707908
1401.2295307449128,0.0025348830576534475,0.0006087043683513667,0.0019261786893020809
1411.4406979507792,0.0015339261948883348,0.0009832888520914566,0.0005506373427968782
1413.5405227196002,0.0019396245854026424,8.97836015860648e-05,0.0018498409838165776
1419.2504195418474,0.003642344673750774,0.0003444008416996677,0.003297943832051106
1420.9376256748212,0.007146939564934904,1.2142892239591868e-05,0.007134796672695312
1422.4932873548407,0.0010736869733739712,0.0007067487024550042,0.0003669382709189669
1432.617132735209,0.004865019718477661,0.0015135463315324724,0.0033514733869451883
1460.682809233344,0.014585996702728234,5.385455472430952e-06,0.014580611247255803
1480.258681844681,0.00553176773098249,1.7051668860405535e-05,0.005514716062122085
1480.5600743987886,0.0010294322918372575,0.0002117956777717938,0.0008176366140654637
1481.9071188970029,0.037354937482281685,0.0015040107153276722,0.03585092676695401
1482.5390995342707,0.001481188121494797,0.00028283596665192745,0.0011983521548428694
1483.5262548195553,0.044644694215941284,0.004594879742154724,0.04004981447378656
1485.07617347185,0.18383872322391534,0.010742935126624286,0.17309578809729106
1487.6889406239584,0.003323153962867335,2.9677300782652387e-05,0.0032934766620846827
1490.640039902287,0.04639848801843815,0.003530768686841631,0.04286771933159652
1491.9807367369642,0.013654700471224128,0.0009054654349533666,0.012749235036270762
1493.739111393681,0.027061032762477205,1.3003601849113125e-07,0.027060902726458714
1496.648071985539,0.0008036472624571119,0.00025646838202412667,0.0005471788804329853
1501.0814293122603,0.003010890216240593,0.00016550713770416026,0.002845383078536433
1504.5785176390311,0.0012236447535016336,0.0003292651960692779,0.0008943795574323556
1506.1327972995264,0.004976393370283265,0.00042762564410883463,0.00454876772617443
1506.427450064555,0.0014720387474322484,0.00015407364717557055,0.001317965100256678
1813.3733393194616,0.026778172042594087,0.02020171932293012,0.006576452719663968
3021.1825786236122,0.05634128471259449,0.05553253779502194,0.0008087469175725492
3021.8776203828984,0.2116749970660499,0.20042791797027582,0.011247079095774085
3023.0559546952295,0.0005255514882920128,3.7933126274865716e-06,0.0005217581756645262
3023.7166388414794,0.015265703889594133,0.00908339541232647,0.006182308477267663
3025.130706310277,3.5810562801858175,3.508039535585529,0.07301674460028837
3028.2289555964253,0.07886569356796393,0.07280311477025224,0.006062578797711687
3033.3930543806755,0.07781864758718668,0.06935676191986088,0.008461885667325798
3038.247159404614,0.11805395363020744,0.10926658775990843,0.008787365870299019
3041.304462283672,0.3859541999935452,0.35527739305054223,0.030676806943002975
3043.4364122549355,1.4072982939534235,4.344038578121822e-06,1.4072939499148454
3044.6625522479076,0.045246111823385525,6.595815372807324e-06,0.045239516008012716
3047.440419589371,0.2160804034733355,6.245180408922041e-06,0.21607415829292656
3050.055146594311,0.9146737772153893,0.9072655784619299,0.007408198753459397
3052.24669067848,0.003080346016523423,1.878275913057742e-05,0.0030615632573928455
3059.1853330829035,1.0509083597111977,1.0306634661993652,0.02024489351183244
3059.7990482208374,0.0822406122587291,0.001305240207440847,0.08093537205128826
3067.066093221321,0.9130873006366824,0.8636464596054774,0.04944084103120511
3067.6839836586037,0.014867824199807426,0.009688521545328777,0.005179302654478649
3068.765359689244,0.02062310434670921,2.6669987707448157e-07,0.020622837646832134
3076.607334815653,0.09508323233283963,2.7424478249789424e-05,0.09505580785458985
3083.342813177692,0.002848440263641042,8.550545421138034e-05,0.0027629348094296616
3088.614022647808,0.09593518125737316,0.0001500030391263412,0.09578517821824682
3091.116843259195,0.1670882152720543,0.0007538980842681592,0.16633431718778616
3100.846541326703,0.6199117763665859,0.5070709474086414,0.11284082895794448
3111.0232321622607,0.0011697237514252494,0.0002173337914645072,0.0009523899599607423
3113.0003371290427,0.12864685970242754,1.1012370728817254e-07,0.12864674957872024
3121.1309810145585,0.409650376934449,0.062493527048387856,0.34715684988606116
3133.7896288574575,0.3868452198072767,0.06523581710660352,0.3216094027006732
3143.036121122908,0.34890650456087524,0.0022176104362540455,0.34668889412462117
3162.108050935276,0.05449423864987732,0.017547638303028038,0.03694660034684928
