frequency_cm1,total_intensity,isotropic_intensity,anisotropic_intensity
0.905641729798866,0.0,0.0,0.0
0.5116703223135172,0.0,0.0,0.0
3.2227530930601826e-05,0.0,0.0,0.0
1.6790431781575097e-05,0.0,0.0,0.0
2.352133373080668e-05,0.0,0.0,0.0
1.0008610748414382,0.0,0.0,0.0
26.165528497915478,0.01448089034253604,0.0004998801471123506,0.013981010195423688
30.224562040921516,0.007817225994767698,2.7110272030779023e-07,0.00781695489204739
39.09715982406762,0.017428587419618776,0.00039191054071128627,0.01703667687890749
58.87794129296106,0.017513778403993867,0.0014238803543735327,0.016089898049620334
70.73060411227819,0.07536668392012721,0.018940167173652607,0.0564265167464746
86.86161506000309,0.018408086416409685,0.005889220636579489,0.012518865779830196
104.49013645719965,0.04538670012898657,0.01563405381683352,0.029752646312153054
117.49521578374699,0.010565261038293585,0.0003587489884457154,0.01020651204984787
154.3359408322639,0.017445811390225822,4.646478401499045e-06,0.017441164911824323
193.3973121684193,0.009645179324701353,0.0064922052337153075,0.0031529740909860457
230.88718447375308,0.008766420461456204,0.005118838905255001,0.003647581556201203
268.409588411996,0.019621008389442904,0.0027783985189485435,0.01684260987049436
301.44764033109163,0.012615943414932457,0.007481820906439922,0.005134122508492534
334.3873983439319,0.013487975988551913,0.0022808677296007455,0.011207108258951168
352.99273592848584,0.015496941011311991,0.0005675906129732331,0.014929350398338759
376.9151880740847,0.0038422475852016836,0.00015909432926755637,0.0036831532559341274
413.55147482511825,0.006067809850558099,0.002148880807545996,0.003918929043012103
417.9416530515236,0.02321502290800112,0.008356376370470544,0.014858646537530575
419.57696151699304,0.011902239411531035,0.0037315750068775268,0.008170664404653508
428.87035495555057,0.0007711563685575629,0.00016606351730808107,0.0006050928512494818
462.83406999759796,0.011122449354204159,0.006973189339197105,0.004149260015007054
474.5516355909732,0.011222499862008625,0.0048222946551346076,0.006400205206874016
524.2625623988172,0.004697895676849098,0.00032749049854548977,0.004370405178303609
541.520243965791,0.001920947346261791,0.00013527108069092853,0.0017856762655708625
578.3087878445283,0.0032959769048567524,3.4700149986763565e-05,0.003261276754869989
627.3940662205289,0.02259486981606743,0.0002288772068619164,0.022365992609205514
628.7583689584939,0.007194416454876,0.00032860472156032725,0.006865811733315673
629.8174794540256,0.03807505548295358,0.00025095199939869213,0.03782410348355489
635.7386546790677,0.009536078657527189,0.00026803642680879976,0.00926804223071839
643.6323648669489,0.004969874286816339,2.4910305617799968e-05,0.004944963981198539
660.273850650492,0.007257432055070868,2.1549217001658214e-06,0.007255277133370703
707.0410909085126,0.015983678057039895,0.005108615291017844,0.010875062766022053
723.6611049044908,0.00010838566923650351,1.0983334610858107e-06,0.0001072873357754177
724.072299981459,0.0007660940100051812,1.7608036020867253e-07,0.0007659179296449725
734.6257792430617,0.0017275049877986397,0.0010278089744522104,0.0006996960133464293
762.3118706939345,0.013358890149360694,0.01168390692859798,0.001674983220762714
770.8763471376739,0.11172115388315976,0.10291847026522923,0.008802683617930535
784.4554678614243,0.0019074951428158897,0.0005477619409987456,0.001359733201817144
796.961807820752,0.01925554436284404,0.002044152123294557,0.017211392239549483
832.7278562586462,0.021569040039658142,0.005986844445327797,0.015582195594330345
842.1229383043045,0.031550435871473444,0.02226761816541165,0.009282817706061795
870.1256193238808,0.06566896144631179,0.028551576609290343,0.03711738483702145
874.4043950843155,0.0068617840616917464,0.0004328334991464442,0.006428950562545302
874.8298285436855,0.07596202926425971,0.03599474277882238,0.03996728648543734
880.105657591759,0.009319982285268131,0.006309324225623272,0.0030106580596448596
941.7940732365932,0.025318200723683987,0.017510803935096558,0.007807396788587431
950.4498864621462,0.010066924355022678,0.006902036122557429,0.003164888232465249
955.0866996234754,0.0014495811510893187,0.0005195986795408367,0.0009299824715484819
961.5999443557213,0.010056431327990684,0.0047620118444864044,0.00529441948350428
1000.0797382957303,0.0018115159753257812,0.00031890161580630397,0.0014926143595194773
1010.339399711888,0.011535346487721615,0.0048572883158476835,0.006678058171873932
1011.0659693994461,0.03857640943880372,0.02751445095001666,0.011061958488787065
1011.4933640070026,0.02870459273030352,0.01581795722568858,0.012886635504614942
1019.7564099036182,0.10038880966605274,0.0726317878323788,0.027757021833673935
1023.2819171614944,0.006339350008550758,0.002454262906197187,0.0038850871023535707
1025.204982131474,0.15369990416239826,0.0887699227764506,0.06492998138594765
1029.0849804902807,0.6901159805229313,0.5744635955930769,0.11565238492985447
1029.976738313164,0.0008763611035671252,9.670563868806077e-06,0.0008666905396983192
1030.1623225248543,0.0013290181736798998,0.0005137465850292215,0.0008152715886506783
1034.2978383807833,0.008006307523019911,0.007102026677466813,0.0009042808455530983
1044.372597097222,0.04242022181738015,0.014010439223005586,0.028409782594374565
1058.4299377418545,0.19858754178114138,0.17700451925555122,0.02158302252559015
1072.4455325123733,0.03001673734979092,0.004812745081231378,0.02520399226855954
1081.5962327269401,0.07493802166949938,0.061191780579600244,0.013746241089899134
1098.203363572985,0.012683658945279987,0.003986397249585465,0.00869726169569452
1113.2660817898277,0.00040133596654177945,6.21170047682449e-06,0.00039512426606495496
1113.3327343193114,0.0008061475908247339,0.00010310724726710825,0.0007030403435576256
1129.7491996242397,0.021885417158500637,0.018849962413281896,0.00303545474521874
1142.570485371012,0.0008492973142975021,8.261221912212324e-05,0.0007666850951753789
1175.138752985409,0.04232669939857065,6.913753368843639e-06,0.04231978564520181
1175.3362874826105,0.03659792756686028,0.00048670904824456307,0.03611121851861572
1192.4215314434869,0.01228030413047003,0.00016168349566871457,0.012118620634801314
1206.5083638484523,0.011837434810681124,7.055089753388937e-08,0.01183736425978359
1208.1158710007794,0.021319096205058157,0.011264490359480057,0.0100546058455781
1215.0573681685921,0.2976112140076569,0.1815029234614924,0.11610829054616445
1266.2022309001006,0.20563108048105572,0.003416532787896881,0.20221454769315883
1280.4146165398854,0.11585899761307798,0.0029980566085301037,0.11286094100454788
1291.4622781083092,0.10790910927864898,2.55613281803484e-05,0.10788354795046863
1301.2892113083597,0.015665929920100456,0.0037066150552967966,0.011959314864803661
1305.34273221496,0.006171544899028075,0.0002218036249904236,0.005949741274037652
1323.8506113088056,1.510558986564833,0.7683264841649946,0.7422325023998384
1339.619932074955,0.12408220581702661,0.07950465823128788,0.04457754758573873
1346.282378350791,0.04252672390595496,0.00842736970649581,0.03409935419945915
1351.689338355229,2.7628715526815255,1.8178459157756222,0.9450256369059035
1357.085141833731,0.1456342247097907,0.10422348289030799,0.041410741819482726
1358.1972983854575,0.10655075224234101,0.05822348677697174,0.04832726546536927
1437.7427017688326,0.08017022425260495,0.03440416861088657,0.04576605564171838
1467.4355537879549,0.22758391997737015,0.08640595814546306,0.1411779618319071
1492.8721648597846,0.0503793480522924,0.0024521937107961373,0.04792715434149626
1500.7952620943806,0.12010003615505044,0.04015252929765626,0.07994750685739418
1527.841072663092,0.04689191168003411,0.00990202983889066,0.03698988184114345
1541.65731983054,0.46053017507867855,0.1850238532269731,0.2755063218517054
1553.4171371502587,0.17160075981947837,0.04098098151371182,0.13061977830576654
1578.1603548651485,0.005477855916666603,0.0015522804743456104,0.003925575442320993
1633.156832827541,0.1382418607759685,0.04375294957612579,0.0944889111998427
1651.4466823676019,0.3025936905318801,0.15871697947488547,0.14387671105699462
1659.9867344472245,0.03104569880136175,0.01965004635531669,0.011395652446045061
1666.2654164921541,0.41433912645857907,0.19226617033179322,0.22207295612678585
1680.4875995456134,0.8383811465660511,0.3294157370778847,0.5089654094881664
1682.7506788780804,0.5995865401234539,0.04955755201517638,0.5500289881082775
1685.9454753064024,1.535266151183794,0.34532348237337873,1.1899426688104153
1693.6202270683375,8.203947183759333,2.638002611183505,5.5659445725758285
3192.279419900454,0.048433389299500515,0.009655975980493616,0.0387774133190069
3192.790493378887,0.05824152859920188,0.0030005167142408847,0.055241011884961
3195.7014782574793,0.7523721145565034,0.003960672217186036,0.7484114423393174
3196.349179165506,0.23641206928614467,0.0017503234552890328,0.23466174583085564
3197.0607008801344,0.14437424875766697,0.0006612041211707237,0.14371304463649626
3198.364152217773,0.30809561270630587,0.004114509961584442,0.3039811027447214
3199.2616425715923,0.14637821645758198,0.0011517474192596396,0.14522646903832234
3203.758689890736,0.12101404335949777,0.008113184782487825,0.11290085857700995
3206.6952453347003,0.28077284789771484,0.00018314427311724369,0.2805897036245976
3207.270554677621,0.18589924709387956,0.004197802728556905,0.18170144436532265
3208.892608901308,0.2843721386236151,0.006655430714373675,0.2777167079092414
3212.2875143165365,0.06221950199131615,0.004870131325379828,0.057349370665936324
3213.9817138162125,0.0925268202967725,0.0004495884586693303,0.09207723183810318
3214.5191540183623,0.10775013635852307,0.0026050149592456813,0.10514512139927738
3215.7132795671796,0.5432393673501595,0.27992631098536397,0.2633130563647956
3219.7739395746366,0.8533935400001237,0.6456376526756745,0.20775588732444913
3222.46771256219,1.844280491910249,1.5147207968451288,0.3295596950651202
3222.915336491373,2.3806807834323807,2.0294719954596685,0.351208787972712
