frequency_cm1,total_intensity,isotropic_intensity,anisotropic_intensity
2.658921817182223,0.0,0.0,0.0
2.0808504021422216,0.0,0.0,0.0
1.7809552300171188,0.0,0.0,0.0
3.577244905084038e-05,0.0,0.0,0.0
1.2227676933821142e-05,0.0,0.0,0.0
2.8282821295873583e-05,0.0,0.0,0.0
43.492737472890774,0.0031170354238575886,4.067299621547299e-05,0.0030763624276421157
56.94004608963714,0.00568427938253042,0.00013527471960509728,0.005549004662925323
79.95647076495875,0.0019899557119502985,3.494066400343918e-05,0.001955015047946859
81.17945399689594,0.0018205172587005421,3.9388563598305554e-05,0.0017811286951022365
87.54171058978145,0.0036920571130155556,2.790739891908921e-06,0.0036892663731236466
175.56390292550938,0.0002850616938150778,2.0659982197006707e-05,0.0002644017116180711
207.11065927474675,0.0006662798599553504,0.0004248557869817456,0.00024142407297360484
214.56744216576627,0.0004658112175384735,3.406047955846158e-08,0.00046577715705891504
228.96290834487195,0.0008479402890315829,0.00025621594715853055,0.0005917243418730524
236.61219675808775,0.00030533222800258405,7.719894527010849e-05,0.00022813328273247555
249.89302249297842,0.006588491727049287,0.005761364103931423,0.0008271276231178641
257.56499880494124,0.001543119978498139,0.0004191956403059428,0.0011239243381921961
296.6073753888021,0.0011150587266283269,0.00028339639853358086,0.000831662328094746
320.35471751925445,0.008689666897010437,0.007661572953054649,0.001028093943955788
326.7805577527421,0.0018538642049529164,7.01061388858829e-05,0.0017837580660670334
376.327629634307,0.004679629671467586,0.0018706839773587123,0.002808945694108874
379.2692720755352,0.009041739113164459,0.005379640584864828,0.0036620985282996305
423.53197111113667,0.003049047824003145,0.00024863790181276586,0.002800409922190379
439.03605326420904,0.009264046171905781,0.008270941939594666,0.0009931042323111144
449.6294940626318,0.004028694134999912,0.0006460872449448742,0.0033826068900550377
492.8611855151466,0.003083668194543969,0.00030078591299891397,0.002782882281545055
509.062471455048,0.0041857064756252865,0.0025016942188760363,0.0016840122567492503
563.0384915985475,0.011290868985127038,0.006841646973478212,0.004449222011648827
583.0730730423772,0.004536951466726938,0.002779228472885743,0.0017577229938411955
611.5259154704205,0.014477844051340848,0.004040880216053008,0.01043696383528784
715.0430193226642,0.007042976896901568,0.004015722452051966,0.0030272544448496017
793.56740248703,0.03336412487125694,0.016259870674361986,0.017104254196894954
804.0667480807437,0.10266535875552661,0.09218642684903301,0.010478931906493596
826.2499566750799,0.022552402387291115,0.017744285706874866,0.004808116680416249
880.6276333346809,0.01002278593692712,0.008165692074054329,0.0018570938628727912
900.9243273601271,0.00898750807491273,0.00780159828355045,0.0011859097913622797
907.6708098058913,0.014118463957908127,0.010183918124578428,0.0039345458333297
928.5300197923586,0.0021393112251918314,0.0003621115163847061,0.0017771997088071253
944.9205268303015,0.013723885026014508,0.0027669934310692048,0.010956891594945303
973.926160826722,0.013570526716692908,1.6777039350189545e-06,0.01356884901275789
975.1300958684695,0.009311671623360955,0.0013894051384150887,0.007922266484945867
994.3563181933131,0.005728506407176527,0.00019922664731603172,0.0055292797598604955
1007.7348752313253,0.007347816765401554,0.00026100101908804095,0.0070868157463135125
1019.3790233712865,0.014537960236679748,0.00383563724974408,0.010702322986935669
1038.1651076656008,0.007863545145624339,0.0018069908345867765,0.0060565543110375625
1059.269603639727,0.000571037705911628,8.943763477320221e-05,0.00048160007113842577
1077.6515590093027,0.013495603189394575,0.0006869453339351756,0.012808657855459399
1081.4638218813927,0.02761894844039656,0.0011178510623125768,0.026501097378083982
1110.8568932083488,0.004605655771459345,3.2765972156958874e-06,0.004602379174243649
1128.835798321518,0.02036024456478673,0.005300170142073972,0.015060074422712757
1138.9753119482734,0.009251016951581039,0.00011758961466786858,0.00913342733691317
1173.7584488184248,0.01554159783183217,3.0925475211325204e-06,0.015538505284311038
1187.3379143618765,0.010725460965312964,0.00776626512012284,0.0029591958451901236
1193.525212220913,0.01637099049501232,0.004483697802173382,0.01188729269283894
1208.9329882747106,0.012235314073856932,0.00017489137241249883,0.012060422701444433
1249.6446820664903,0.0217044463553498,0.004739631804800736,0.016964814550549063
1276.8041594085676,0.010555699474253676,0.0007608862975248909,0.009794813176728786
1287.9036002153232,0.010417113492020683,0.0029139938084432725,0.00750311968357741
1298.8767400476256,0.018635780845707217,0.0007265867923312441,0.017909194053375974
1317.9682587012617,0.024971344454670554,6.733383168618239e-06,0.024964611071501937
1339.5149177700996,0.002925890065258785,0.0001559637424080769,0.0027699263228507082
1350.2413019509545,0.004128883464322552,7.866341128744762e-05,0.004050220053035104
1362.513972633364,0.02494635146491738,0.00031205862835407243,0.024634292836563307
1371.7503682211307,0.05698254155584844,0.0011497494086081497,0.05583279214724029
1389.1289200426636,0.008314735990060157,0.00021494870362056786,0.00809978728643959
1394.8681906517647,0.021232125666950916,0.00015085874389560218,0.021081266923055314
1396.8684331665447,0.005082767829281932,0.00039808419713990845,0.004684683632142024
1399.8988484207175,0.005992687814392704,0.0011386963006623754,0.004853991513730329
1404.6371256700106,0.005783534635504442,3.904898686238087e-05,0.005744485648642062
1410.830085092878,0.0005365702513363468,3.881899104438944e-06,0.0005326883522319078
1413.6090284512154,0.01586790378694113,0.0030101484576245683,0.01285775532931656
1418.4176322071082,0.006216253585868952,0.00038191787152658035,0.005834335714342371
1421.3676544107645,0.0034457862275491056,0.0011296459365729469,0.0023161402909761585
1472.0860554857893,0.010664678716681059,0.0005552758636687108,0.010109402853012348
1474.9951423516793,0.02948310373186819,0.00047022715615886024,0.02901287657570933
1478.4232364790535,0.019134122888739023,0.00012943800327303788,0.019004684885465986
1482.8417129219267,0.01982103963052556,0.0011635875874495172,0.018657452043076044
1486.9612896467174,0.01659052907559948,3.6773101896032324e-05,0.016553755973703448
1490.9470238003719,0.00562368430532689,0.00041731879242799965,0.00520636551289889
1493.2953926178818,0.025229188055295726,2.1523099830048864e-05,0.025207664955465676
1495.1882544667512,0.02621256482250249,0.0004488453216946141,0.025763719500807875
1499.2877324876947,0.023333364804453152,2.6604506634036223e-06,0.023330704353789748
1500.656319451621,0.0180100240147065,0.0010357136140093386,0.016974310400697162
1520.5641238832432,0.011637138404376546,0.0001226393378176495,0.011514499066558897
1829.3316846989474,0.09663618439854371,0.04758658328056601,0.049049601117977695
3030.244782017481,0.2983033512075026,0.15774348927435006,0.1405598619331526
3034.2740370392194,0.3391145889149967,0.20501353657604088,0.13410105233895583
3046.2436522256635,0.7659502955682638,0.7512117054852566,0.014738590083007166
3048.2189057694063,0.08526597268605306,0.06895960394590633,0.01630636874014672
3049.8174867601506,0.7331219809006319,0.6840857257335944,0.049036255167037496
3052.291143843939,1.194060033939311,1.057190906810403,0.1368691271289079
3059.8275061696886,0.19182349812954036,0.1084965111398224,0.08332698698971798
3068.2651648647357,0.4138901855655236,0.34183733814628964,0.07205284741923396
3074.6770850328476,0.23736198782670875,0.06541519379205209,0.17194679403465665
3077.2980522350535,0.7444166401804844,0.7272214633408394,0.01719517683964498
3089.6287164051682,0.5451151363607752,0.43066630635183806,0.11444883000893716
3101.823593734437,0.15176141186103792,0.05989245760833092,0.091868954252707
3111.40667359701,0.11863282250458738,0.015268059537645878,0.10336476296694151
3111.6715693585106,0.39833363683545087,0.17801067391180955,0.22032296292364129
3115.385866461956,0.142566007765892,0.005051944205323143,0.13751406356056886
3117.0084317076644,0.2723354096245225,0.003932121432222943,0.2684032881922996
3121.471488895141,0.304356941295324,0.002377448451876846,0.3019794928434471
3121.792676527398,0.7387937474172831,0.47806209500411223,0.26073165241317087
3134.556439532295,0.22781280897896353,0.11471259880843757,0.11310021017052596
3138.1589644791675,0.25929669218180507,0.038302414583771725,0.22099427759803336
3145.5144157738673,0.18241049413236218,0.029703545034207874,0.1527069490981543
3190.401012418116,0.26177956087647813,0.06312335811149734,0.1986562027649808
