frequency_cm1,total_intensity,isotropic_intensity,anisotropic_intensity
2.101346295216804e-05,0.0,0.0,0.0
1.4594370181860091e-05,0.0,0.0,0.0
3.176355939822988e-05,0.0,0.0,0.0
0.549383151531913,0.0,0.0,0.0
0.7109046749350842,0.0,0.0,0.0
2.4467115463940434,0.0,0.0,0.0
8.93986865621504,0.0015730310297192018,1.0484006712478838e-05,0.001562547023006723
10.906168854540567,0.00017222886202766238,1.1487151811768716e-08,0.0001722173748758506
21.371043332061635,0.00024346064164056528,2.3843115354361214e-09,0.00024345825732902986
23.145366623384632,0.0016303965508892519,1.4382468381154573e-05,0.0016160140825080972
36.23503857081284,0.0013588750283257674,3.207193754885676e-05,0.0013268030907769106
47.89776972706656,0.0008514871711547063,1.0272490568941442e-06,0.0008504599220978122
49.43557069380479,0.002086096874596253,0.0001301702870639373,0.0019559265875323155
59.553833605416344,0.0019789298298509206,0.0003742172902420685,0.001604712539608852
71.44954350282464,0.0005692951467140461,1.0837071349135368e-07,0.0005691867760005548
74.01111984724649,0.0013735331399009013,3.631308395459721e-05,0.001337220055946304
80.07797510834719,0.0014898912286680558,6.950942848424955e-10,0.001489890533573771
93.47614015065587,6.1577305680114e-05,6.78996465066053e-11,6.15772377804675e-05
95.13753653327916,1.870827407554022e-05,2.8245028883804943e-09,1.8705449572651836e-05
113.53101412196807,0.002123359749658682,0.0011899375735242943,0.0009334221761343875
121.65125485280842,0.0019219636875483525,0.0016618502599056544,0.0002601134276426982
130.33702978377127,3.280213840653274e-05,3.469989383051134e-07,3.245513946822762e-05
144.24396953218226,0.009517252059128796,0.006655531846826635,0.002861720212302161
154.02053489181674,3.719795573580691e-05,4.631389348323358e-06,3.256656638748355e-05
159.59761210058835,0.0004240816210132409,3.9115687222807537e-07,0.00042369046414101285
174.6421822731266,0.001178296936399089,0.000516830361980152,0.000661466574418937
205.30654235002686,0.00028446681819098516,9.85324717084772e-09,0.0002844569649438143
208.21155797184272,0.0009742703238385701,0.00027951686803833305,0.0006947534558002371
243.62296549113,2.0673981480483766e-05,2.7231649485160196e-08,2.0646749830998608e-05
245.63328211153402,0.0001529091092484049,3.288045685853282e-05,0.00012002865238987207
268.52402456394384,0.00048049356936640745,5.792733706173694e-10,0.00048049299009303686
287.18765075580205,0.0031463308048481084,3.672736578079933e-10,0.0031463304375744508
322.14316137599593,0.006545458430021564,0.005957426942274629,0.0005880314877469354
341.2229925362368,0.001193038540816787,2.7570688067427544e-08,0.0011930109701287195
362.19157158813294,0.008658583157484754,0.006910729696281042,0.0017478534612037119
411.8214875018109,0.0012152543436404855,1.3619855730042757e-08,0.0012152407237847555
420.06277906961145,0.001697463982871437,0.0015470127046945514,0.00015045127817688557
442.0866869290384,0.0009644011188004823,0.0002956963679428506,0.0006687047508576317
456.33984356152257,0.0033320299537284554,2.953538295470776e-08,0.0033320004183455005
538.0909000208593,0.0042423370507563085,8.54203746882455e-05,0.004156916676068063
539.0378703080673,0.0035976174886451426,4.898618764743751e-06,0.003592718869880399
592.6765774595781,0.0007489309338947127,3.882772650419589e-05,0.0007101032073905169
593.3520166996725,0.000587871554905001,0.00011404335716708011,0.00047382819773792085
706.444534296766,0.0004763762510834763,0.00030727061096076175,0.0001691056401227146
706.9106029682304,0.004823854322423315,2.49248704492434e-09,0.00482385182993627
730.2593845042753,0.00013330642060295196,1.1204552765819333e-05,0.00012210186783713264
739.6922378901971,0.00018590504432489295,3.111591851026639e-07,0.00018559388513979028
743.9456313995962,0.0007657248721311214,6.938730875837891e-05,0.0006963375633727426
743.9968656480016,0.0008353989393663777,5.964399756434976e-05,0.0007757549418020279
775.4288386311077,0.00038378531147760454,1.526027096334874e-09,0.0003837837854505082
807.1613231870568,0.008011669721426981,0.0024256118098480444,0.005586057911578937
807.2441328139633,0.001479053298907711,0.00038619810827972414,0.001092855190627987
836.6153580088954,0.00018312129426352152,2.8394210066827806e-07,0.00018283735216285325
907.1891865077445,0.0005567720974890144,7.684106569646891e-05,0.0004799310317925455
907.6572761381844,0.052217300132594346,0.03333686610303278,0.01888043402956156
916.5340714746285,0.002989400120863761,0.001984448351811587,0.001004951769052174
920.8605592290747,0.0956097203107311,0.082265209751996,0.013344510558735107
921.0536757782104,0.020139073745421864,0.002173784477551261,0.017965289267870603
963.9322934233493,0.00041086751826938887,1.7762225991257604e-06,0.0004090912956702631
964.4938216688507,0.011760617493708183,0.008908978707893903,0.002851638785814281
1001.651797504684,0.007190447538141004,0.00018676355193461227,0.007003683986206392
1005.9600701310603,0.00010889146775001924,1.0078514682028964e-06,0.00010788361628181635
1008.7910968546823,0.0040047548041621875,1.2151997844368212e-09,0.004004753588962403
1038.9227490928333,0.003886821925385269,1.5771053831806362e-06,0.0038852448200020883
1039.8025116087126,0.006237290356262472,0.005174513368482587,0.0010627769877798857
1058.5021683282096,0.007894811140050043,2.1330375394592833e-08,0.007894789809674648
1066.3712439837523,0.0036683182845539558,1.7869975393201634e-05,0.003650448309160754
1083.4329660218852,0.008368990247707393,2.6871717653174915e-06,0.008366303075942076
1083.9206501500664,0.04111639743357378,0.001789847570727581,0.0393265498628462
1084.1644242692132,0.033372406056525424,0.01211314986182264,0.021259256194702786
1089.460838617623,0.04612563435680907,5.5275607666898304e-08,0.0461255790812014
1095.7276983524234,0.0026379377940594605,2.670836581892899e-07,0.002637670710401271
1132.228679658658,0.06857572294335623,0.03976543125534729,0.02881029168800895
1133.2208219155864,0.10874328768076048,0.06311228387363822,0.04563100380712226
1144.5525344962798,0.015581737379272353,9.021154912656247e-05,0.015491525830145791
1144.5944973730439,0.08933254598661738,0.07547605246733897,0.013856493519278413
1152.0191788259144,0.004058041509096414,5.997763069812248e-07,0.0040574417327894335
1191.8867422038886,0.00254422110442259,2.3763631576308765e-08,0.0025441973407910137
1194.8391410819693,0.0033061599728759577,0.00032620643967309643,0.0029799535332028612
1203.4042057020722,0.0020966808178568947,5.8333038917799006e-08,0.002096622484817977
1208.9590605942071,0.005881815553763144,0.0047278797941276655,0.0011539357596354785
1236.812314186894,0.0027582741940462134,1.8516886348846715e-06,0.002756422505411329
1247.139610930587,0.0027027334795050578,1.3059472514953602e-11,0.0027027334664455854
1268.6982093633526,0.0025758411242042863,0.0015938163043690153,0.0009820248198352712
1269.5027908132686,0.0004984398326845373,7.174834249171476e-08,0.0004983680843420455
1279.3813156126826,0.00573293222056618,1.5257854660153133e-07,0.0057327796420195785
1292.1007628182983,0.00020803790623688786,1.9062235929693116e-06,0.00020613168264391855
1296.4067527136299,0.00013125547098723816,6.324487423357508e-11,0.00013125540774236392
1301.7556776000993,0.0011381470069974531,0.0009748337270214038,0.00016331327997604934
1312.5327835760363,0.0001226309581230819,2.9841781790540485e-05,9.27891763325414e-05
1326.397115864229,0.07975144122775595,5.312690863853518e-08,0.07975138810084731
1330.331712313422,0.01870263035088589,5.6522601279614484e-06,0.01869697809075793
1330.6491662151973,0.044375492420952435,0.0024398618923853724,0.04193563052856706
1335.6043578889685,0.01632815652677128,2.966014986757282e-08,0.016328126866621412
1336.2781603571814,0.014915066727620017,7.141214407637643e-09,0.01491505958640561
1337.1904885167578,0.004977147407900414,8.759368653251344e-05,0.004889553721367901
1337.5015745965086,0.021888750680610674,4.956831737747852e-06,0.021883793848872925
1345.404890584141,0.001147463681934048,6.746897979845371e-10,0.00114746300724425
1381.0490255620214,0.0019431840807695349,1.0773023073286317e-06,0.0019421067784622062
1389.3283980375018,0.0029731047192992494,5.658566625927364e-08,0.00297304813363299
1391.9993368672615,0.005095500480277814,0.00042251688487794956,0.004672983595399864
1411.2438489418732,0.0001703319775296343,4.3773703436810844e-09,0.00017032760015929063
1414.5713585155788,0.0011386978031876999,0.0006795052015491052,0.00045919260163859477
1414.875723562878,8.078899241594424e-06,4.007407891568731e-09,8.074891833702856e-06
1422.5163742690859,0.00290569281932643,0.001776081009812275,0.001129611809514155
1424.460959529941,0.0023196888020538572,5.541006998950466e-10,0.0023196882479531574
1435.5228343603108,0.0044826987847112745,1.1935405109166512e-08,0.004482686849306165
1436.3934723419443,0.006601120333307868,0.003408316677542701,0.003192803655765167
1460.8308935608331,0.0019875231511570614,4.30562317284698e-06,0.0019832175279842143
1460.988042434157,0.02598536885105331,8.100795718017843e-05,0.02590436089387313
1481.6967271728909,8.902507849914196e-05,4.254620218814589e-06,8.477045828032737e-05
1482.0988538750184,0.09533542933624707,0.007546850690429317,0.08778857864581775
1485.4205872407194,0.013354777071383725,3.180910941896914e-05,0.013322967961964756
1485.4648276436603,0.011879602216797519,3.5048539342204734e-05,0.011844553677455315
1487.96589877308,0.08914253203376318,0.00403798670180768,0.08510454533195551
1487.9847542457615,0.06974545173813848,0.009554012185516741,0.06019143955262174
1489.4160540402584,0.028890007976737325,0.0051711536318409974,0.023718854344896328
1495.1675684911836,0.023451717385773393,1.927052406384052e-05,0.023432446861709554
1495.1914701082578,0.02511308283364023,2.5044901300984627e-05,0.025088037932339248
1496.5105291409786,0.002243281376697492,2.835656089817083e-07,0.00224299781108851
1496.5399660689952,0.008634870476141185,4.904920444399101e-06,0.008629965555696785
1499.054171631874,0.00023684125557053365,9.042608781760629e-09,0.00023683221296175188
1505.3941034122606,0.002346837379447077,0.001236830764283461,0.0011100066151636164
1506.5910524422266,0.0004146066370920644,0.0001241203654283942,0.00029048627166367025
1506.6196361268205,0.0021885386383120415,0.0010066013665332475,0.0011819372717787942
1812.6032630742898,0.001105411196085013,0.0006058494784090613,0.0004995617176759517
1813.1094010474274,0.04898334977841878,0.038136055930732014,0.010847293847686765
3021.3153000940306,0.0005060054147923848,0.000491255819351706,1.4749595440678898e-05
3023.6399702390995,1.4421767855248202,1.4196839748714702,0.02249281065334994
3035.4448206669626,0.0009073561154576265,0.0006295782172708893,0.0002777778981867372
3039.062859086813,0.7742162556295704,0.6973671918606413,0.07684906376892914
3039.133256607737,0.7744515100122984,0.6975727978532732,0.07687871215902523
3046.3438514114973,0.6637786073340565,0.0002804410124987989,0.6634981663215577
3052.182476610074,0.4588017142722023,0.4456204939545789,0.013181220317623366
3052.2451175815027,0.4580932142486835,0.4448446635572089,0.013248550691474558
3053.214574306573,0.00017602840278682882,0.00011804286390684747,5.798553887998134e-05
3057.2065982101058,0.8483842861235085,0.7526341352540317,0.09575015086947686
3057.25249633585,0.8605308356068596,0.7649207070296249,0.09561012857723475
3059.3291355571237,0.12927007598513915,0.12299776143514105,0.006272314549998103
3059.7590427082364,1.8945235738280988,1.8733779758230562,0.021145598005042614
3067.773090424971,0.0014881351039410702,0.0008027794601234979,0.0006853556438175723
3068.253863904052,0.023789786005479,0.020387360893282126,0.0034024251121968748
3072.719215426188,0.4245927239007168,0.035075486928423,0.3895172369722938
3072.7837965621316,0.4246926857090041,0.03469006801422512,0.39000261769477895
3078.606741681331,0.0876035262722117,0.00016272289651702616,0.08744080337569467
3090.262532777902,0.002446739983133068,0.00017022994162561666,0.0022765100415074514
3091.8618712870716,0.4256034263538481,0.0009067932593901703,0.42469663309445793
3093.3559353597407,0.4845493044997805,0.43312845047896564,0.05142085402081489
3093.441522492686,0.502371785671663,0.4533627670917716,0.04900901857989137
3104.501424338461,0.04776105798517994,0.007002015604808424,0.040759042380371514
3104.5051954128835,0.047832568098556426,0.0071559386125271286,0.0406766294860293
3111.235130895147,0.0004461266152173958,1.0691148108224053e-06,0.0004450575004065734
3112.1163347044067,0.002596769467139798,0.000692666934440847,0.0019041025326989509
3118.3701147684087,0.18642716386266178,0.004894554528981515,0.18153260933368026
3118.4636607159587,0.18606687352821327,0.004758220629575577,0.1813086528986377
3125.2351313282343,0.3960257874620963,0.06125071812637205,0.33477506933572426
3125.2584729050272,0.3957818100524705,0.061244867231186384,0.3345369428212841
3146.0120927250837,0.15100220148207233,0.01200694097472834,0.13899526050734398
3146.0908675064647,0.15155985245739947,0.01234398229153528,0.1392158701658642
