frequency_cm1,total_intensity,isotropic_intensity,anisotropic_intensity
1.776589824174745,0.0,0.0,0.0
1.2343145206256736,0.0,0.0,0.0
1.3443194516516797e-05,0.0,0.0,0.0
2.5892966199787226e-05,0.0,0.0,0.0
3.9720408546328176e-05,0.0,0.0,0.0
0.9551500380667972,0.0,0.0,0.0
55.82710659877466,0.00040408487972894684,5.982736478924631e-07,0.00040348660608105437
64.15655132084318,0.0018166681195840176,0.00029852341396513135,0.0015181447056188864
72.98570246789201,0.0010258842559193384,8.813041030002487e-05,0.0009377538456193136
115.28248531025675,0.0007764937397668055,2.3424077820921166e-05,0.0007530696619458844
137.78754755674493,0.00021609429748423268,1.0193655834602504e-07,0.00021599236092588665
148.0867320592303,0.000970137411802429,0.0004840507004618467,0.00048608671134058224
155.49902723721854,0.0018036908186366274,5.606134314302816e-07,0.001803130205205197
196.71016933881089,0.0027725074517987737,0.00246343491798294,0.0003090725338158336
206.36732967116933,0.0002399163735505368,2.1219685968336797e-06,0.0002377944049537031
231.7722350758469,0.002000049423928296,0.0016176389419772805,0.0003824104819510156
250.63734252547232,0.00046904523092322284,0.0002808394212065449,0.00018820580971667792
260.1668567837087,0.005265089883469912,0.00511005780885358,0.00015503207461633244
266.605233288929,0.0010109080418131563,0.0007340297761186826,0.0002768782656944736
312.44266307835335,0.006808055162887155,0.00639986752119263,0.00040818764169452473
316.0269257711615,0.005281064161963284,0.00485779982208589,0.00042326433987739426
377.30491075967245,0.0034215558423514526,0.0007614794005376056,0.002660076441813847
390.78053377339586,0.0037680347763075013,0.0005222357550134354,0.003245799021294066
406.45555253831,0.0007574257927518862,0.0003936802236499983,0.00036374556910188796
430.8387520298206,0.00044086036959201406,8.416349876067088e-05,0.00035669687083134317
485.0163461149858,0.006988722788998121,0.005006893215792543,0.001981829573205579
504.4048525275151,0.0035148811568821168,0.0026501577865551884,0.0008647233703269286
533.765422713441,0.012729840121293383,0.008757983525881469,0.0039718565954119135
712.2291589801376,0.0005970017018153634,3.736463390813702e-05,0.0005596370679072264
728.8816813640835,0.001841192811727025,0.0002600609787585839,0.0015811318329684411
744.9219534978029,0.006404519027999713,0.004333995628003585,0.002070523399996128
759.1397690786014,0.01769748869171967,0.014246864558320034,0.003450624133399634
776.2469153763913,0.022833443311781786,0.019061561402410394,0.003771881909371391
789.1889544582959,0.01695825921954852,0.012541015901871575,0.004417243317676948
820.7516959339496,0.02718967779100354,0.01703499790266515,0.010154679888338389
840.2991396359488,0.037045086890723604,0.02429648182295954,0.012748605067764065
853.0498159198501,0.013388495771471953,0.004360590740805567,0.009027905030666385
886.54195773802,0.014984756228391488,0.013122020325319778,0.0018627359030717106
895.9513403082336,0.022444756081568807,0.013865988490547706,0.008578767591021101
928.9979428682266,0.009296963222066076,0.003040489105632179,0.006256474116433897
936.2758684178294,0.02789364844078834,0.025356686264751894,0.0025369621760364448
953.01067587096,0.008882031932987344,0.004321121120397683,0.004560910812589661
978.9601527141266,0.010120721274915687,0.006152715834033912,0.003968005440881774
997.805463947524,0.020166495858790778,0.0006140415399987715,0.019552454318792007
1017.0209361479469,0.0175263359699937,0.003463363331110239,0.014062972638883462
1033.5218585932548,0.00971678431189121,0.0026221731841049242,0.0070946111277862866
1059.143896551289,0.006708896851557151,0.0026138335105884815,0.0040950633409686694
1066.6934236084792,0.0045455614158350695,0.003222002945738069,0.0013235584700970007
1068.0283162248631,0.01824149510870125,0.009518856805968158,0.008722638302733092
1078.1213312910543,0.013354034749741893,0.00027067378938113606,0.013083360960360757
1089.8187213838044,0.01713550647706517,0.0006281590604133015,0.016507347416651868
1108.9425445195723,0.018624992604530786,0.00011817892809618146,0.018506813676434607
1118.3017240157262,0.01979194049525505,0.00016338641904542158,0.01962855407620963
1129.161707205938,0.010320647978346694,0.00048546436150191983,0.009835183616844774
1137.4568620103548,0.006664297284848168,0.0002578209486937777,0.00640647633615439
1143.831430735491,0.0008885785372325966,0.00025856858220338536,0.0006300099550292113
1152.340772794729,0.015707569918353457,0.002775847918286185,0.01293172200006727
1156.650293108403,0.0070648399569475315,4.961468160188117e-05,0.007015225275345651
1206.4157165181443,0.00834804149090549,0.003797643523185996,0.004550397967719495
1214.074570645274,0.0102890276664895,0.0005525954542465461,0.009736432212242954
1220.3642223769634,0.0025694711481235653,0.0006344231523996686,0.0019350479957238969
1244.9203364890627,0.0037664181925845374,0.00011865097357458453,0.003647767219009953
1273.5669262565564,0.01219718051164415,0.0069200484431985185,0.005277132068445632
1281.4995102474013,0.004006095963954135,0.00016807260122544032,0.0038380233627286946
1282.696601426273,0.008783573734341781,0.00014416985733733682,0.008639403877004445
1302.9883948256577,0.01079538960787256,0.002567461512128798,0.008227928095743763
1313.9281592285743,0.010769896987345729,0.0025224505650397414,0.008247446422305987
1316.8879023337906,0.01762914780424627,0.0011927714081663805,0.01643637639607989
1324.590949075649,0.012480371214251513,0.0017492422815511997,0.010731128932700312
1331.8596171747063,0.038839354495830015,0.0005802669723617973,0.03825908752346822
1333.5982425170323,0.006387585701268203,0.001722906149331778,0.004664679551936425
1338.8427618195665,0.013371537741704527,0.00048577051357488765,0.01288576722812964
1343.5011506811568,0.06340155330711722,0.00015414866223095513,0.06324740464488626
1354.157679816828,0.0255617872817376,0.000546879342085137,0.025014907939652463
1365.963465076217,0.001996147074730049,7.799748209893389e-05,0.0019181495926311155
1370.463776181833,0.0019980958177297694,4.869582300101339e-05,0.001949399994728756
1383.632869353476,0.004293160777393321,7.117783781330736e-05,0.004221982939580014
1388.2040589037665,0.0015174447745990652,0.0007287946628944935,0.0007886501117045716
1395.6197909453683,0.004779002793748271,0.0009430705479327668,0.0038359322458155045
1397.2117012525885,0.002765673881985598,0.0004927645889356606,0.0022729092930499372
1400.7939587405415,0.001997537541238589,5.442745764181045e-07,0.001996993266662171
1405.3739062761472,0.0018437484182153188,9.543433565014717e-05,0.0017483140825651717
1413.6506090610128,0.007559443417492694,0.0012425974872560643,0.00631684593023663
1416.0700089346135,0.009125718456480624,0.0001685969887386142,0.00895712146774201
1477.7733471690526,0.0329803071195053,2.8421567441389606e-05,0.032951885552063916
1480.7571182291463,0.04044990392815781,0.00011148922256045673,0.040338414705597354
1481.9488233905558,0.0252149054783832,3.1488338603958756e-05,0.025183417139779243
1483.7973750605854,0.009105572730662596,0.0006958678180295033,0.008409704912633093
1485.9107298382178,0.01911556040239659,8.533935318743308e-05,0.019030221049209154
1488.416903517561,0.02162626746112005,0.004463997724901194,0.017162269736218858
1490.4800627416216,0.00334739282747259,0.0015355396565106903,0.0018118531709618996
1493.1822337757164,0.007711068416014216,0.00024544408740243836,0.007465624328611777
1495.6441687999102,0.05317881370902835,0.00016221466612083676,0.05301659904290751
1497.3223717456347,0.01852432950485241,0.00026497910578543774,0.01825935039906697
1499.5424437103543,0.03722823147787042,0.0005634723211200178,0.0366647591567504
1503.7491608234045,0.017658028317576714,0.0006764434566802969,0.016981584860896418
1508.4167477344001,0.009782728367357683,0.0008171121047346342,0.00896561626262305
1510.3350624001985,0.00907924995778137,0.0004683105454680599,0.00861093941231331
3026.927867184323,0.3222264928831535,0.20874037577656057,0.11348611710659297
3031.7392561297925,0.4802984613796688,0.2830137020072971,0.19728475937237175
3034.00944645976,0.464159254597453,0.35837295289728355,0.10578630170016948
3035.638848780215,0.503399255347267,0.2628063281659369,0.24059292718133019
3037.3913803650353,0.13530460031183777,0.06981217120299983,0.06549242910883793
3038.372046976799,0.09742557503068676,0.01600561583177053,0.08141995919891623
3039.016390732377,0.46269816338983544,0.323316912265804,0.13938125112403144
3041.3588967015453,0.2557056185579539,0.03424427272923171,0.22146134582872218
3044.3698182273833,0.4821156410398808,0.2130255287064012,0.26909011233347957
3047.8714103412804,0.45143634174684855,0.27146265551053134,0.1799736862363172
3048.9316821912544,0.3964786372882836,0.3431097504113299,0.05336888687695365
3053.0297569565855,0.6059847335435167,0.5405373624346654,0.06544737110885127
3054.3592890418736,0.13619450580464174,0.09412963357277981,0.04206487223186192
3056.568506418084,3.483442403417174,3.384373053494424,0.09906934992274997
3065.864872548313,0.40267855667859637,0.012125413999650884,0.3905531426789455
3066.380304414649,0.4645324203285084,0.029881311318686474,0.4346511090098219
3069.1820957601326,0.637509178330122,0.19880775121910885,0.4387014271110131
3072.2972892252646,0.4002962694754208,0.2827510004293718,0.11754526904604902
3075.5173989805758,0.1962559350435456,0.05155310237602831,0.1447028326675173
3078.001079475545,0.16145990931191392,0.049024376450317673,0.11243553286159624
3084.0977588634773,0.38771661269687613,0.09642599451451478,0.29129061818236135
3086.116092462162,0.2554583487485858,0.12359620393917875,0.13186214480940706
3087.9112068531203,0.16140731264923186,0.03218210143999835,0.1292252112092335
3089.729822706271,0.7509055464645273,0.4564427968004587,0.2944627496640686
3094.9875531022603,0.17472680999914902,0.09922205677922243,0.0755047532199266
3099.010603570139,0.11774331553339773,0.020618940980779675,0.09712437455261806
3105.407428033044,0.04786007418003846,0.01688251274871488,0.030977561431323575
3123.4097673039555,0.1438091907608916,0.07760012786322487,0.06620906289766673
