frequency_cm1,total_intensity,isotropic_intensity,anisotropic_intensity
1.4045125539532054e-05,0.0,0.0,0.0
1.9332437193002175e-05,0.0,0.0,0.0
2.3290799717515204e-05,0.0,0.0,0.0
1.238085009907949,0.0,0.0,0.0
1.3389010251734679,0.0,0.0,0.0
2.4370158882927146,0.0,0.0,0.0
11.31214770878281,0.0019733528653884556,3.943869720642404e-05,0.0019339141681820314
17.973002104591476,0.009098468751687927,1.1240586015358514e-05,0.009087228165672569
25.058547732261307,0.002413128014440359,0.0003753518949845013,0.002037776119455858
32.62080215563229,0.023209848390873502,0.0030079364919021845,0.020201911898971317
43.91279709538913,0.011550438307283126,0.0009490182561036773,0.010601420051179448
57.61006521390036,0.002668521572821449,0.00031108912014856077,0.0023574324526728883
69.12447392632593,0.007611470268727098,0.001432241550933605,0.006179228717793493
72.20919779483465,0.0014575514754408738,0.00026680439508222636,0.0011907470803586475
84.2956838698482,0.008553222939341066,0.0019849286906671107,0.006568294248673955
98.54782203967322,0.04504623991223564,0.016508367946512347,0.028537871965723296
117.55153762903647,0.0004820217956725373,0.0002363596946326827,0.0002456621010398546
123.56500001746743,0.02654707364166447,0.011246189846474105,0.015300883795190366
137.92529287745953,0.02903003455895958,0.006085964330632357,0.022944070228327222
159.9745150688605,0.0004761975359576588,3.726857000510312e-05,0.0004389289659525557
173.23064749791487,0.02978551167554168,0.014264857908563636,0.01552065376697804
204.7977155713519,0.07542291239616308,0.02266578702516792,0.05275712537099517
216.05623569120306,0.04715369874141561,0.01795951892702666,0.02919417981438895
242.16471255964558,0.0013853615105140144,0.00039915528653001043,0.000986206223984004
248.62265018476347,0.0005144036086628997,0.00014930453588421516,0.0003650990727786845
267.09838577817976,0.011300990810020378,0.003399816250748872,0.007901174559271504
284.0802874193045,0.012009431390756227,0.0008532104915850065,0.01115622089917122
318.0028606006267,0.010345424088593068,0.0012028364164278994,0.009142587672165168
333.43107090196605,0.04917634486967157,0.025430718374888108,0.023745626494783456
360.58622579905364,0.04223055304162427,0.018876783877723027,0.023353769163901243
385.22076136508264,0.010548009961974202,0.003397471272455188,0.007150538689519014
418.8196241361285,0.006464167002637104,0.0026156033440693505,0.003848563658567753
425.6432732678145,0.049014994847285734,0.01770243751791948,0.031312557329366254
429.1967495366475,0.014350764345173059,0.004850435159189383,0.009500329185983676
456.0421656973168,0.010192175727156751,0.004360619596505832,0.005831556130650919
488.2349597430293,0.0025560002596140266,0.0015114402912291254,0.0010445599683849012
502.11898726667977,0.002961287636496302,0.0011516578213577632,0.0018096298151385384
542.1618430769552,0.006780931374616355,0.0019591546670467627,0.004821776707569592
546.2611871305298,0.0016156807140091489,0.000665463196178645,0.0009502175178305039
579.9274728458078,0.0006624701525915228,7.886553607100299e-05,0.0005836046165205198
635.3265819843289,0.03637763465725158,0.025703460514659937,0.010674174142591641
652.22439998999,0.08463189186717028,0.011649921328828609,0.07298197053834167
659.1522510313814,0.014992491477480429,0.001511668795317929,0.0134808226821625
734.6320691400601,0.0004879474763780525,1.1306797678206189e-05,0.0004766406786998463
745.5007598383128,0.0008806633498628535,6.900873156569388e-09,0.0008806564489896969
751.3253205338048,0.011197355469227774,0.00010634965387100684,0.011091005815356767
763.2906996112348,0.025466577452986625,0.016099416341599847,0.009367161111386777
794.9912708403964,0.0029840465064341426,0.000694783826177825,0.0022892626802563177
796.3764213479243,0.030475939266966363,0.008731957066013998,0.021743982200952364
821.1660791522585,0.004587961303781514,0.0029357720842927196,0.0016521892194887942
823.8175053382889,0.17627016568858458,0.1275419194278165,0.048728246260768084
840.4903362764712,0.002601655992082922,2.2550648393743698e-06,0.0025994009272435475
854.3019638722286,0.07025892875767234,0.03612290139029159,0.03413602736738074
864.3856283258052,0.011210367317798071,0.0031692719593476464,0.008041095358450425
872.9637400847754,0.0033053742518687965,0.001450261739618305,0.0018551125122504913
877.1224556474566,0.020182946463048156,3.321705031096793e-05,0.020149729412737186
910.3777496977452,0.0687794309704501,0.02535433360291268,0.04342509736753741
922.0509149106095,0.10862009353509992,0.05604664050602873,0.052573453029071196
926.7089695228367,0.06985780710614714,0.05907990495284032,0.010777902153306821
936.0527430101674,0.0018596986954054606,0.00017718777148959138,0.001682510923915869
960.1238142720779,0.0020863679297193067,0.0003271515670441085,0.0017592163626751981
974.1987784947621,0.007388505845148989,0.0032934776202688046,0.0040950282248801845
984.1480859224821,0.0038707292600351825,0.000354701488423065,0.0035160277716121176
1001.422983135304,0.04128819890108438,0.015119921374989435,0.026168277526094946
1014.9050413473591,0.02219026089855077,0.008833095533904683,0.013357165364646085
1028.8142360178547,0.19999346931711165,0.07676005361978865,0.123233415697323
1034.4261786875368,0.004248800569111708,9.499350209450844e-05,0.0041538070670172
1034.704614166133,0.010444238519865062,0.004338637578934101,0.00610560094093096
1042.6832642905244,0.004556360959084615,0.0017253554862068224,0.0028310054728777926
1044.557830351913,0.01213916545849996,0.008314199736586475,0.0038249657219134856
1081.6798208136547,0.04460661780085774,0.00902676584219012,0.03557985195866762
1086.8669826890232,0.027299239941031502,0.00011495597961023997,0.027184283961421262
1093.5104125788093,0.004824503580494201,0.00037783550906712486,0.004446668071427076
1094.5326514423007,0.02839423582701751,0.00038514417572755634,0.028009091651289952
1132.2910907629919,0.11612727956110813,0.07592568222092483,0.0402015973401833
1137.164198685881,0.015736249197028915,0.0011050986088166491,0.014631150588212266
1139.3187554880992,0.14719947692837804,0.07241422911295961,0.07478524781541844
1153.2915864750087,0.10469798877640779,0.06790723373561594,0.03679075504079185
1184.912469047511,0.0015807664532960905,2.7932812751307323e-06,0.0015779731720209599
1197.0335664192946,1.5219914672972183,0.7940969007122309,0.7278945665849874
1198.2811221131901,0.52870616475525,0.23573430803113657,0.2929718567241134
1230.096111948311,0.23037506441310077,0.10594323270284997,0.1244318317102508
1233.3702614135887,3.559613512950749,1.560451452179112,1.9991620607716372
1240.5399743769394,0.28238941231336806,0.19779617800598856,0.0845932343073795
1251.8183797403879,0.006166278569066335,1.6318473527184816e-08,0.006166262250592807
1278.44647429094,0.012098163668912974,0.0020476393986252842,0.01005052427028769
1282.4040882769496,0.12578765954373552,0.07599963357870464,0.04978802596503089
1284.9694356966922,0.30849697611385024,0.09632495605426948,0.21217202005958075
1293.6692844594004,0.05430570761292353,0.01621425689116298,0.03809145072176055
1298.192441212264,0.14035099203534074,0.07102691755489308,0.06932407448044765
1313.705826792942,0.031716269222103,0.019652354711927788,0.012063914510175215
1320.293923156917,0.012107401731359508,3.773947006415005e-06,0.012103627784353093
1328.522634676382,0.042834446712804695,1.2378714608305362e-06,0.04283320884134387
1331.045466798231,0.04479420178082106,1.976507342711729e-06,0.04479222527347835
1334.4434687139328,0.09166271893788117,0.039472039085381126,0.052190679852500046
1339.2390806698395,0.1097265038989751,0.0587803150736713,0.05094618882530381
1344.7252223108703,0.004554537528479268,0.0006425526180648284,0.0039119849104144394
1363.7268318863585,0.13472657288569906,0.05515847367638201,0.07956809920931705
1390.0148595875685,0.010634937272091858,0.0007449787322001587,0.0098899585398917
1403.8726468386337,0.059805001552478004,0.028344430876878608,0.031460570675599396
1412.7532567760293,0.0014460515236149195,6.710508689377537e-05,0.001378946436721144
1412.915629888365,0.007506130913176702,0.0014967515944265175,0.006009379318750185
1415.428116025524,0.0009763871747268307,0.0006071178431618151,0.00036926933156501555
1435.649900246635,0.01292199971682974,0.0016810402447810233,0.011240959472048716
1463.7314206803496,0.0516035268751026,0.01703532717500968,0.034568199700092915
1474.1896891290346,0.537025485382856,0.24348070601543734,0.29354477936741863
1482.5543086475518,0.15392095972064593,0.02902870971170392,0.12489225000894201
1485.1932058537861,0.06530098117551662,0.006330932127956615,0.05897004904756001
1486.7358607253968,0.008297819441679559,0.001995865689442028,0.00630195375223753
1492.993371912633,0.0016503679828800432,0.0006837357157133783,0.0009666322671666648
1493.3974424005698,0.02671282556825153,1.886809333020166e-07,0.02671263688731823
1495.7451752756567,0.029821234422993427,1.8992960486271134e-08,0.02982121543003294
1496.2213096323821,0.0270292447146955,0.00031579807631630094,0.026713446638379202
1503.6814385688178,0.013014554506307981,4.359377511937339e-05,0.012970960731188608
1505.6292570644364,0.005397860630135208,5.939520762934541e-07,0.005397266678058914
1516.5506032324552,0.007857692931229144,0.0002626760232535991,0.007595016907975545
1557.3254967625842,0.9504551013325493,0.34735313749028346,0.6031019638422658
1566.6935559481594,0.0045147934250772525,0.002656227632732769,0.001858565792344483
1647.9690300275304,0.026969676209072688,0.006106046337474723,0.020863629871597966
1650.1361860947025,2.489416888670313,0.7933077408980891,1.696109147772224
1685.770335278228,12.013154771303789,4.08233946710921,7.930815304194579
1692.0962812069995,0.23843037704552528,0.13243317029871945,0.10599720674680581
1745.950376520881,12.864403998275355,5.264133428675694,7.600270569599661
3020.730362279829,0.4453628188799522,0.4276549396696912,0.01770787921026104
3035.479943858519,0.992815213811355,0.9555494599660768,0.037265753845278186
3040.659301707016,0.9641257998618116,0.9211205352187246,0.04300526464308698
3041.306957317343,0.008800845588570898,8.52528330835942e-07,0.008799993060240062
3043.626023866036,0.25369867286848147,0.17134103574768966,0.08235763712079179
3050.3898508718376,1.6857954637203398,1.6387825669186695,0.04701289680167038
3052.3775053019863,0.09341594397581948,7.591817721390199e-05,0.09334002579860558
3053.1390314674263,0.7088984363335751,0.6919702876741217,0.01692814865945332
3060.67910421768,0.5845460172968293,0.0004788209146351325,0.5840671963821942
3062.144976870458,0.32262167374759887,0.0002268219112238037,0.32239485183637506
3063.8351866796233,0.46526961955366736,0.44264204687365605,0.02262757268001133
3070.688567255176,0.31970990436544505,4.107660298768163e-05,0.31966882776245736
3078.126651746853,0.0027111448150252586,0.00013348436431806146,0.002577660450707197
3098.2906402307917,0.15182389148165984,0.0005724309619005474,0.1512514605197593
3108.516742257914,0.0008537033785242354,2.2295683250849337e-06,0.0008514738101991504
3114.747080164431,0.11141132718685079,9.78543978648283e-06,0.1114015417470643
3120.136900763411,0.17512383045499122,9.241094978879081e-06,0.17511458936001234
3122.9742974671135,0.4970784345609766,0.09509565662783175,0.40198277793314485
3126.778506125439,0.43094911945192205,0.06146277912304677,0.3694863403288753
3182.766970692702,0.5085543315473071,0.20438408213789383,0.30417024940941334
3183.788862126143,0.4127853723929565,0.18715615783970646,0.22562921455325002
3189.75674223915,0.25631349128916,0.05659532736932436,0.19971816391983563
3212.907691234851,0.1959076755457547,0.12354386841250058,0.07236380713325412
3213.4903967786895,0.33361206113606934,0.06398065509701671,0.2696314060390526
3217.572217437303,0.6461013947924856,0.46780503664585504,0.17829635814663058
3228.3641425003834,0.34393934767920464,0.26359931905583794,0.08034002862336673
3235.660765613489,0.7607872547175957,0.49981836308054056,0.2609688916370551
