frequency_cm1,total_intensity,isotropic_intensity,anisotropic_intensity
1.5521653903317285,0.0,0.0,0.0
0.7612557473327828,0.0,0.0,0.0
0.3440419989460012,0.0,0.0,0.0
1.7702367323993976e-05,0.0,0.0,0.0
1.713101604525492e-05,0.0,0.0,0.0
1.9105744646578998e-05,0.0,0.0,0.0
7.091238377112184,0.016530326905086785,5.690305248512406e-08,0.0165302700020343
9.448859115816736,0.017103029593494065,1.5207704976844304e-09,0.017103028072723566
25.515285102040846,0.022169462822830246,1.1409890936817067e-05,0.022158052931893428
47.291283487641444,0.012823902189944277,1.3140712886297168e-06,0.012822588118655647
47.90846861685596,0.013052260234472528,1.4442550695246029e-07,0.013052115808965575
58.266617129046885,0.012829811919863774,0.0003166117480931241,0.01251320017177065
129.61663881135925,0.02005127535802995,0.006174942157186611,0.01387633320084334
159.36873205026467,0.011528064653388806,3.353004648102215e-06,0.011524711648740704
159.57041402858752,0.010893421003875702,5.968193216271338e-07,0.010892824184554076
188.37219166967216,0.004616060828273566,0.0011428744419693711,0.0034731863863041953
188.92498268668513,0.0019051275034454975,0.0001128693518274589,0.0017922581516180386
189.21981739555707,0.0021890330401740303,0.00025006097378904633,0.001938972066384984
214.7217959718908,0.00863316771414019,0.008416856518378958,0.00021631119576123297
218.86318030962886,0.012812495908718621,6.552692295784072e-05,0.012746968985760781
220.26868098948998,0.013796942270387256,3.0107487963021184e-05,0.013766834782424235
339.3633131783734,0.019949777949992666,0.018884262335718067,0.001065515614274601
344.7168240393852,0.003690265427573581,1.3864563756584858e-05,0.003676400863816996
345.704681359467,0.0036571853804281346,2.260993538239917e-05,0.0036345754450457356
417.82253719898176,0.004013843872617777,0.003898721964987915,0.00011512190762986182
421.9790814877798,0.006005383691867035,1.976489614565897e-07,0.0060051860429055776
422.35738203754954,0.005913595952818481,1.5321173637781826e-07,0.005913442741082103
428.66320642616756,0.06131224690668408,0.05744818566077245,0.0038640612459116355
434.35750997749545,0.003987970063171435,4.189293532042257e-06,0.003983780769639392
434.669229022679,0.004353302510445914,1.179728649641926e-06,0.004352122781796272
467.6048610150818,0.002809729415958452,5.951220130502338e-05,0.002750217214653429
468.26813229225024,0.01275976492662404,0.012483258015046824,0.0002765069115772161
468.63119110109454,0.004110721160526394,0.001542433807813175,0.0025682873527132187
563.332907330703,0.0020737727558642915,4.073083261625544e-07,0.002073365447538129
564.5937713275044,0.0021346502318622743,6.791692736384533e-07,0.002133971062588636
579.5227887916973,0.008847824601249348,0.008238120494087783,0.0006097041071615653
679.6236140504416,0.0850473337159473,0.07996467562702052,0.005082658088926793
681.0190918454851,0.02547076619340901,0.00043948918084430724,0.025031277012564704
681.0427115368194,0.024281844912141866,4.255677456279854e-06,0.024277589234685586
716.2144209938457,0.001401275040170388,3.6616599124570115e-05,0.0013646584410458179
716.5550665579685,0.0014143480987844279,4.9587242318590884e-05,0.001364760856465837
717.2558921658972,0.017064906831760027,0.01678079168617829,0.0002841151455817344
794.826864607313,0.002424252466458871,0.00022760660427839405,0.002196645862180477
806.2296502785857,0.009431048945687887,2.2896377225824974e-05,0.009408152568462062
806.5799408227953,0.008320366159227625,6.697160631689916e-07,0.008319696443164456
815.0223159780921,0.021656146607956957,3.2536928576212365e-06,0.021652892915099337
815.1923020720442,0.022128273795171072,5.908066266419622e-06,0.022122365728904653
815.566063664577,0.002563644927402897,0.00029145372179957367,0.0022721912056033232
926.4878974737184,0.0010843017654641103,4.4386541739351736e-06,0.0010798631112901751
927.469173310013,0.00589196947388562,2.4074198537941446e-06,0.005889562054031826
927.8819261156424,0.006995890253654581,3.3596597350063084e-07,0.0069955542876810805
942.6555694987936,0.004977695400184218,8.715159575403552e-08,0.004977608248588464
942.7868805704693,0.005305874041757889,7.757581682619779e-08,0.005305796465941063
948.7655367130898,0.01626275747444235,0.013661211537001509,0.0026015459374408413
1017.8851894769736,0.0024957538478969396,0.000548228822975622,0.0019475250249213177
1018.0358722855319,0.001974661873477359,0.0002619529222200152,0.0017127089512573436
1019.2100761374205,0.03533169025936609,0.03518603821920368,0.0001456520401624106
1024.1011224049316,0.8338434930448083,0.789314174429084,0.044529318615724275
1024.995306999511,0.05370351776594619,1.2849163345528972e-05,0.05369066860260066
1025.019681372384,0.054009133620039805,0.000348859858892342,0.053660273761147466
1116.1699543740933,0.04524721683550379,0.0036623705247469497,0.04158484631075684
1116.2081074271687,0.043309882219903596,0.0005753415407453157,0.04273454067915828
1117.3878348831006,0.2287174064506935,0.20925172579815082,0.019465680652542675
1123.472171012033,0.018516463550259127,2.001359470628833e-06,0.0185144621907885
1123.7776502421339,0.01925874353034782,0.0015235582332259136,0.017735185297121907
1124.429528362957,0.027605461914285288,0.01548504573414345,0.012120416180141837
1162.5257406967971,0.05608443132749245,0.0016598086553440321,0.05442462267214841
1162.856062150916,0.05722763469663264,0.00033580131818932997,0.05689183337844331
1166.313712185658,0.47302797470754177,0.4673386961489476,0.005689278558594176
1195.7223796477958,0.05901938100351081,0.058365357951898726,0.0006540230516120847
1197.040762981719,0.01614396613106084,0.00046732822529660454,0.015676637905764235
1197.6961945578373,0.016838769159709447,0.0019035687554030943,0.014935200404306351
1278.329776429694,0.008054962069100299,0.007218230362838687,0.0008367317062616112
1282.9109202552277,0.01579485416447714,6.750590701141266e-06,0.015788103573776
1283.5953678981166,0.015196979942080326,8.018296001883075e-05,0.015116796982061496
1339.9111904721003,0.0075227649731546406,9.858448018725078e-05,0.00742418049296739
1340.1305657046523,0.005923391229620498,0.0010546344342037754,0.004868756795416722
1340.7925927593092,0.005217876965821424,0.0016672178112316167,0.003550659154589808
1451.0017289871162,0.02135510415952326,0.008533370887779385,0.012821733271743874
1452.0831171816778,0.016352390457493406,0.00031934493134383907,0.016033045526149568
1452.3261206714483,0.0163090607965681,4.1887867345511535e-05,0.016267172929222588
1516.9894184405775,0.0032092482515923416,9.816625912648951e-08,0.0032091500853332153
1518.3792179153443,0.0025440574871378138,1.91242948154458e-07,0.0025438662441896595
1518.5879953065933,0.0024531704994288123,2.5585451934331045e-06,0.002450611954235379
1644.81735199172,0.07602987485441154,0.0086892576743356,0.06734061718007595
1645.4033929156956,0.08721290168622077,3.999798756203467e-06,0.08720890188746457
1645.6116424343206,0.0936967737577154,1.4073230434156061e-05,0.09368270052728124
1660.8608283652707,0.17255876700710912,1.6074731037162595e-06,0.1725571595340054
1661.0336707414008,0.17570513757979148,5.864943141981581e-05,0.17564648814837167
1663.5615052560481,0.08015232271784034,0.07612929000593757,0.004023032711902762
3202.5898792961125,0.2394361241240323,0.0017410914440697113,0.23769503267996261
3202.798712530351,0.22690935051496663,0.008251507655431832,0.2186578428595348
3204.0139740015516,0.23374290091357727,0.0029468571979450898,0.23079604371563217
3211.33559460721,0.08881585571981884,0.06019789011195652,0.028617965607862332
3212.679122154354,0.10060334410494799,0.08600928659081425,0.014594057514133743
3212.6927987665654,0.028153647076342287,0.0004747306806165627,0.027678916395725724
3215.4407649907416,0.19465654545688563,0.006703368896970831,0.1879531765599148
3215.808839292452,0.3057378960139516,0.1654116232052134,0.14032627280873822
3216.8698937550953,0.32911725248338586,0.2467945945497046,0.08232265793368125
3229.5233162455584,0.48360194522159405,0.15181980169297746,0.33178214352861657
3229.5857529426976,0.7943122393147877,0.5411899375243079,0.2531223017904798
3229.701951181469,1.270172961914444,1.128656930598588,0.14151603131585594
