frequency_cm1,total_intensity,isotropic_intensity,anisotropic_intensity
3.338926691481528,0.0,0.0,0.0
0.5942360182805804,0.0,0.0,0.0
0.5331997249244509,0.0,0.0,0.0
1.7166669156000932e-05,0.0,0.0,0.0
2.3653353174860588e-05,0.0,0.0,0.0
3.2849405986115714e-05,0.0,0.0,0.0
15.882465041582554,0.001521187387162827,5.789895761423913e-06,0.001515397491401403
24.19509430517954,0.004613952026015969,3.885912253330908e-05,0.00457509290348266
28.058658671120448,0.0016125394460897377,6.293707245024597e-07,0.0016119100753652351
37.50026889280344,0.0008618350731312606,0.00014712442421922073,0.0007147106489120399
43.83246518756355,0.00042725125311635363,3.98398360529478e-05,0.00038741141706340583
60.6856450575164,0.0020741805775735442,0.00017517940631428262,0.0018990011712592615
73.81344845408792,0.0028845537321871076,8.840007636464937e-05,0.0027961536558224584
77.25026601674908,0.0008386141493626161,6.5215968741608065e-06,0.0008320925524884554
96.31019076112058,0.00042945856132356377,4.090354498335902e-07,0.0004290495258737302
117.24183583546076,0.0017882343239473933,0.00032624125778141054,0.0014619930661659828
124.52707220945733,0.00018907054830329372,8.772376480322416e-05,0.00010134678350006955
133.04627621814672,0.0015644371478830419,0.0003938970649847241,0.0011705400828983178
147.77484007542694,0.0057048331811676515,0.004537758493051593,0.0011670746881160589
158.7003914477137,0.0030338883054227316,0.0020068534802226766,0.0010270348252000548
165.0558511698442,5.9785839201310315e-05,6.478696711303082e-06,5.330714249000723e-05
171.86391716465212,0.0028147507524540322,0.0019111940973927527,0.0009035566550612794
183.9968012869316,0.0009613797234510556,0.0005407497411671558,0.00042062998228389973
242.91762475422442,0.0020353259604989314,0.0012201386059239434,0.0008151873545749878
245.76409695068017,2.0897060545061227e-05,7.53340488126618e-07,2.014372005693461e-05
262.14287131058273,0.001913993870489879,0.0011227900930410393,0.0007912037774488397
294.3481074379249,0.0014351937890159663,0.0002691933224140822,0.001166000466601884
351.882751918632,0.0013355886229949442,1.3577042068032725e-05,0.0013220115809269115
377.099836195238,0.00011087421709885842,3.701050109578367e-07,0.00011050411208790058
406.97105994578527,0.0024269745941666214,0.0013537882228289533,0.0010731863713376681
423.6264133874441,0.0026606147873227868,1.5514565420316434e-05,0.0026451002219024704
476.23597524194133,0.0023379914832511316,0.0006750730406280664,0.0016629184426230651
484.0146548435411,0.0016635807108330708,0.0010326737989232169,0.0006309069119098539
501.20822332348655,0.0014175386517978512,0.0010203478334526797,0.0003971908183451715
614.5679977988913,0.006492716846856003,0.0013968452981581651,0.005095871548697838
722.8503424330786,0.04454762535741211,0.039372135913776855,0.005175489443635252
728.1855503132018,8.704753315320292e-05,1.3615911970228134e-05,7.343162118297479e-05
730.215081066864,0.0006118423562470218,0.000493795637857346,0.00011804671838967578
736.1008765292513,0.0009203046726596187,0.0008407295079432706,7.957516471634809e-05
749.8764715439188,0.00049001912653243,9.214802040082305e-05,0.0003978711061316069
771.9970386367759,0.00360507313188136,0.0018989642893746479,0.001706108842506712
792.7847403715172,0.009729910465290634,0.007197195968140393,0.002532714497150241
829.960245451701,0.005191561187827382,0.00386527924936178,0.001326281938465602
882.1997203408577,0.002625167402058773,0.0021484471115785957,0.0004767202904801771
908.3218238266633,0.03376242384887071,0.020681601952858897,0.013080821896011816
940.6366518218663,0.0019591604184348126,0.0014836306538527002,0.00047552976458211255
992.6299998594046,0.0025690216589318014,0.000906090419195707,0.0016629312397360943
1003.5247684314121,0.0040810258342625335,2.939758826102362e-05,0.00405162824600151
1009.3536076153093,0.0012614581055096176,2.4439136676077554e-05,0.00123701896883354
1023.8543406961074,0.0031144617260665183,0.0011091108481596707,0.002005350877906848
1044.4790883567996,0.004468280758360133,0.0030307025197273928,0.0014375782386327404
1048.3012057568749,0.00212955516337419,0.0010493214715580886,0.0010802336918161017
1054.7415125846421,0.008348031147795172,0.00039904683193406457,0.007948984315861107
1076.117203558843,0.0017995201438618404,0.001338385287864765,0.00046113485599707523
1084.2867993663544,0.016129257384362918,4.915386370989021e-06,0.01612434199799193
1087.0141565099502,0.05438127492893389,2.0200748374252928e-05,0.05436107418055963
1090.4971434824272,0.030149158448778992,1.8699329682377247e-06,0.030147288515810753
1091.6892380402953,0.0006525416886014538,0.00015924336650939534,0.0004932983220920585
1095.0530497041593,0.009388007459569598,0.0012797646210190802,0.008108242838550517
1106.4269183851845,0.06744319958783139,0.03484037204430455,0.03260282754352684
1127.4484582920197,0.003172110444868277,9.095292296666251e-08,0.0031720194919453103
1154.2638876061924,0.19264774495678466,0.1160571136315363,0.07659063132524836
1178.559600411659,0.001664386771319579,0.0010794037265004592,0.0005849830448191198
1200.8514167846997,0.009050886437112831,5.5861306453902245e-05,0.008995025130658928
1212.74378908543,0.0036227875759272552,0.0002551606326567017,0.0033676269432705535
1223.934117781069,0.002573213500223679,0.0014921170901577231,0.001081096410065956
1238.2894900835213,0.0025728082799033563,0.00047376910066380067,0.0020990391792395555
1255.5680037100078,0.0003601249872673308,0.00011540433087403154,0.0002447206563932992
1266.4651530039885,0.0015905564526306607,0.00040162315554947406,0.0011889332970811868
1285.5721511943418,0.0006455527651350102,8.608613781206839e-05,0.0005594666273229419
1292.4673773088273,0.0059286875132899194,0.0003778951719563581,0.005550792341333561
1305.2291410683397,0.0033945814111937807,0.0016550978908516816,0.001739483520342099
1314.6058850978716,0.0007823346105276946,1.3428614579839544e-05,0.0007689059959478551
1320.4214469731962,0.0032737944041552466,0.0010628329031976112,0.0022109615009576356
1325.8443810386582,0.12759129282320616,0.00012326656805603553,0.12746802625515014
1329.7000030934632,0.0021549563528768054,8.854307668122012e-07,0.002154070922109993
1332.8124193682747,0.0005328098661881565,0.00013868836626909577,0.0003941214999190608
1337.7100785733742,0.00018883221776355165,7.581531250080549e-08,0.00018875640245105086
1338.3259338234582,0.006125384419850297,4.17920901810704e-05,0.0060835923296692265
1350.1580620708226,0.0006913386591556673,4.3864617105778775e-05,0.0006474740420498885
1378.1123527249217,0.0029741459785994784,0.000596668659429236,0.0023774773191702426
1399.2105569368034,0.0009680259969903484,2.513397609472309e-05,0.0009428920208956254
1411.8206918575365,0.0013450316286731773,0.00045123087285479045,0.000893800755818387
1413.9297277318647,0.004433808847368563,0.00026782872839100616,0.0041659801189775575
1420.181522863948,0.0005515777776496965,2.298848124970964e-05,0.0005285892963999869
1420.9652511698825,0.007786203118801146,3.701998703446303e-05,0.007749183131766683
1431.9453705867356,0.013606471470087641,0.004027521700068855,0.009578949770018786
1442.5676155817498,0.014562969412270308,0.007131332412465429,0.00743163699980488
1469.712077905437,0.056058865426286165,0.008253174930626933,0.047805690495659234
1480.2443981656504,0.003130153152608511,0.0001895566792561779,0.002940596473352333
1480.8410674852332,0.0006382278718792501,8.198882906375896e-05,0.0005562390428154911
1481.7573552274716,0.006661613595357209,0.0013997401723536997,0.005261873423003509
1483.9183466161232,0.10790865245963663,0.006898937105688642,0.10100971535394798
1484.5303003929912,0.023593071897387286,0.0017955010201249504,0.021797570877262334
1487.923270818598,0.09096134766453624,0.0028494088564796852,0.08811193880805655
1490.2729117278964,0.037986759906266016,0.002315072235204223,0.03567168767106179
1492.745460194916,0.011138851893848632,0.00023764471245711884,0.010901207181391514
1493.7450243879628,0.02718100320971978,1.0686650266393963e-09,0.02718100214105475
1496.5119877546822,0.019248895654193847,0.0005141091301603194,0.018734786524033528
1500.0647801925575,0.005984231484276068,0.0004983580387781424,0.0054858734454979255
1502.1553736494475,0.004106253289981573,0.00045308718475815644,0.003653166105223417
1503.9406949045247,0.00815333224281072,0.00038197352018373406,0.007771358722626987
1506.1223369989757,0.001442199578386724,0.0001397223303071508,0.0013024772480795732
1513.6410536593296,0.008310875105562365,0.0001261999604897743,0.00818467514507259
1547.0385020279216,0.019342980165481822,5.010384499711833e-06,0.01933796978098211
1738.1772057473086,0.07022146127897119,0.04288215540814926,0.027339305870821926
3022.1132073980775,0.08107981444451609,0.07399343528842828,0.007086379156087807
3022.7291171632796,0.01825822625232191,0.01585051070685033,0.002407715545471578
3024.25553790843,0.19246332518856848,0.17913606745299582,0.013327257735572678
3025.134850298683,2.219371360251945,2.181953156265355,0.03741820398658989
3027.6491129856145,0.9066855213575822,0.8765602640276545,0.030125257329927678
3032.187771089714,0.015574528550772893,0.0066557183970935,0.008918810153679393
3035.9871662517257,0.11590683160315995,0.05500149493638781,0.060905336666772135
3037.4036398863846,0.250553805240005,0.21938401409170563,0.031169791148299368
3041.2740122124387,1.5579578168697807,1.498246797943437,0.05971101892634369
3041.398152821658,0.1485184986631603,0.10092490310343055,0.04759359555972975
3043.9144398929448,1.192382606679141,0.009311696041991276,1.1830709106371498
3045.7748510561846,0.31788545768216,0.26124907365023503,0.05663638403192497
3047.597194109445,0.4428513636095286,0.4140467381407008,0.028804625468827796
3049.9946701044837,0.9172295309144386,0.90977950885135,0.007450022063088606
3051.388551272115,0.252742739877385,0.048403870608689274,0.2043388692686957
3058.002787660541,0.014341691853055682,0.011823895014151055,0.0025177968389046273
3066.0407929752314,0.1745561430332046,0.011055614297652934,0.16350052873555168
3073.6210098061397,0.09508181616972208,0.08830442724534038,0.006777388924381701
3076.515935350065,0.2941879193725436,0.2532296395152858,0.04095827985725783
3081.918121679518,0.5842859745878987,0.00014864493771074084,0.5841373296501879
3082.088941132181,0.0857101234155963,0.016481938486098646,0.06922818492949766
3086.040367990099,0.1341423734405384,0.0032204011382797886,0.1309219723022586
3088.306588104431,0.004366458905048748,0.0026040453083263776,0.0017624135967223707
3094.8055393289383,0.06963807875131306,0.0017648849396502033,0.06787319381166286
3112.9841762786295,0.12838717839162775,2.6599879314361926e-06,0.1283845184036963
3121.0186757167676,0.40924539579151176,0.062233427037099026,0.34701196875441276
3135.036241821413,0.16908903496738617,0.06434509106486644,0.10474394390251973
3190.78836403524,0.17193550833823043,0.03249490470157859,0.13944060363665184
3197.7449654510933,0.21797713960594503,0.05949835274349943,0.1584787868624456
