frequency_cm1,total_intensity,isotropic_intensity,anisotropic_intensity
4.38828057053883,0.0,0.0,0.0
0.8678162938098226,0.0,0.0,0.0
0.8348051836426259,0.0,0.0,0.0
1.942591754645143e-05,0.0,0.0,0.0
2.036333941213357e-05,0.0,0.0,0.0
2.146609503615505e-05,0.0,0.0,0.0
9.250515677470567,0.00015065122008089537,9.813413145959462e-08,0.00015055308594943577
15.774580862256656,0.0002826178455396391,1.2067926655751894e-07,0.00028249716627308156
20.98528486140805,0.0005966877583255083,4.0686246239513374e-07,0.0005962808958631132
24.946585206695605,0.0005979783397303372,6.449168027902318e-07,0.000597333422927547
42.35662684141913,0.00034990230672560756,1.0732317316687442e-05,0.00033916998940892014
47.680133902809814,0.00020743011332110558,2.4298236317306327e-06,0.00020500028968937494
50.71470409390077,0.00039889576807186064,2.9738931158088035e-07,0.00039859837876027977
67.38741689814177,0.0002476381303224648,3.426515709929056e-05,0.00021337297322317423
80.28739931222178,0.00025426971369042967,1.098676684385219e-05,0.00024328294684657748
86.15792143955942,0.0002104826239215382,7.651864077019325e-06,0.00020283075984451888
96.8445265113499,0.00030089968182332467,0.0001658518745759216,0.00013504780724740307
104.47789972985849,0.0007837176078320566,0.00017987934245581225,0.0006038382653762443
117.7088982444873,0.004438990410380306,0.0026020578470777726,0.0018369325633025343
129.40315242936626,0.0015559082784622575,0.0007006071149724022,0.0008553011634898555
134.15650307751167,0.0052822730992094094,0.002979620993861152,0.0023026521053482575
140.5024150546429,0.004396010495809717,0.003233778548978343,0.0011622319468313738
151.639632313221,0.0005154725024617535,9.098646484718275e-05,0.0004244860376145708
158.57083350269724,0.0004334081743674544,8.577774406561601e-05,0.00034763043030183835
168.7612062513502,0.0008017892648725709,0.0002935865243411492,0.0005082027405314218
174.1471763948736,0.0006619113597147563,0.0001930143371372059,0.0004688970225775504
178.16552098029211,0.00016484823977205978,7.14680567052774e-05,9.33801830667824e-05
205.25101033636938,0.0006361616737528864,0.0005521158112397909,8.404586251309548e-05
245.99445225021506,2.1151748464321257e-05,7.287273598573149e-09,2.1144461190722682e-05
256.30067836052893,0.0004479733456004055,0.0002500477646017156,0.00019792558099868991
266.57312880330346,0.0003264834633414902,0.00027304644732787856,5.343701601361165e-05
322.28934310355015,0.0013145091934958415,0.0006669000388599976,0.0006476091546358438
349.22302957276855,0.006731938414006509,0.005097013720059104,0.0016349246939474042
380.9866153925635,0.004189375463498954,0.00042366512114467246,0.003765710342354282
410.3230437320427,0.002071866491280345,0.0005471356779419702,0.0015247308133383747
418.32467956465894,0.00014130021553563696,1.8643360376733406e-05,0.00012265685515890356
473.7563913375015,0.001101458664866137,0.0004551036655402261,0.0006463549993259108
477.6290320207959,0.00030552765410408556,0.0001471852353617714,0.00015834241874231416
513.9141106055054,0.0011664324314484193,0.0004364135643040725,0.0007300188671443467
537.6772293218037,0.0005277690575438819,8.963303455963987e-05,0.000438136022984242
575.0560239381675,0.0023140575595237177,0.0006454753669147581,0.0016685821926089594
728.0028936490763,6.855856612774899e-05,1.1450412603194517e-06,6.741352486742953e-05
729.4656347751219,1.2107825171105036e-05,3.308485343469306e-07,1.1776976636758106e-05
734.3817492995341,5.485075917931973e-05,2.94723319049822e-10,5.4850464456000676e-05
747.1894326180791,5.432528176552242e-06,1.7621114410516e-08,5.414907062141726e-06
770.1853144244046,0.00020416472518092982,2.2244723897165803e-08,0.00020414248045703265
805.0738362455901,8.712072376219652e-06,2.3176537041880506e-08,8.688895839177773e-06
831.526794107076,0.0001945511275927289,1.9316248922666556e-08,0.00019453181134380622
852.090140167199,0.0001837617161236003,2.524529821754612e-08,0.00018373647082538277
874.8181367505615,0.016058256117336456,0.0031175794140633917,0.012940676703273065
904.6970055176039,0.00013658342079617564,2.81360452983512e-05,0.00010844737549782444
908.3116531465016,0.032929894790600704,0.02005826310213516,0.012871631688465543
914.4179761707977,0.028682040733027363,0.01487583968490027,0.013806201048127093
960.1580913377933,0.00012065972015674725,1.6536941134505897e-07,0.00012049435074540219
1005.7091954471819,0.002131647915854177,2.6391650587794655e-05,0.0021052562652663824
1012.5514253596479,0.00023039462841315818,1.9977783905544966e-07,0.00023019485057410274
1017.7798610206626,0.0005123836516495133,0.00022630734190433134,0.0002860763097451819
1028.5589821195636,0.003070339363718296,0.0012230970241275925,0.0018472423395907035
1050.0573347279787,0.006795637484422353,0.0018780993355928667,0.004917538148829487
1054.8191597462558,2.8974307805082652e-05,1.639969040874903e-06,2.733433876420775e-05
1063.9757567738413,0.0013555418031696318,1.4235798897014479e-05,0.0013413060042726172
1066.2835177455686,0.010175533665393538,0.0019376001589031396,0.008237933506490398
1075.6506066667782,0.011640098813254686,4.346253987864747e-05,0.011596636273376038
1087.4830755021374,0.052921882771362824,0.0063210676188598675,0.04660081515250296
1088.9807163098021,0.06558221734509778,0.00261830333744013,0.06296391400765765
1091.3410819764963,0.006714632267799356,0.00014418361133307424,0.006570448656466282
1092.3634987821913,0.0005535270380433702,7.802376789229452e-05,0.0004755032701510756
1097.1765015076282,0.00474099931650552,0.0009383245633975086,0.0038026747531080115
1110.9023371046687,0.010703784536001959,0.0034696222746629663,0.007234162261338993
1128.3766003467306,0.006654812243285126,0.0007813108514227511,0.005873501391862375
1144.1051814004684,0.0011966070481488598,8.190102881298822e-05,0.0011147060193358717
1160.9340999786184,0.036123734232718474,0.015143977718844133,0.020979756513874338
1163.42226459763,0.2568923400713742,0.15288764894438014,0.10400469112699406
1180.0993568245913,0.032311415325757556,0.00015938568084054327,0.032152029644917014
1192.9430971827037,0.0032563546878805003,0.00041314997758919544,0.0028432047102913047
1193.67106616602,0.004620524333643021,3.184104246531564e-05,0.004588683291177706
1209.880695230937,0.006006304706131976,5.61652381805381e-06,0.006000688182313922
1225.8020081133466,0.0001508485966718205,2.1117719913292572e-05,0.00012973087675852791
1234.3940732044807,0.0008632252821425265,2.0585742257026723e-05,0.0008426395398854998
1238.4781335777675,0.019352137283033338,0.0022353172441077194,0.017116820038925618
1240.701571308746,0.0013405493883192154,0.0002558708560724806,0.001084678532246735
1256.1186141006824,0.0015234818314893886,0.00023891013156162084,0.0012845716999277676
1264.4552265905734,0.001572290029346176,1.8358686615162956e-06,0.0015704541606846596
1277.2952179356957,0.028339115083380162,0.002456223450137435,0.025882891633242727
1285.2537217270237,0.000833689377176712,0.00031507427348221174,0.0005186151036945003
1290.4883207717182,0.0006803727823499896,1.0443441791478189e-06,0.0006793284381708418
1301.0188071716545,0.03736165020282632,5.494285162780144e-05,0.03730670735119852
1311.5754018535467,0.006849701758739993,1.8035667594805562e-07,0.006849521402064045
1316.0275031616468,0.0013257310619015402,4.058847162948903e-06,0.0013216722147385914
1321.1251723163,0.055258655513472456,3.0790178046896196e-07,0.05525834761169199
1325.736423634733,0.09477741751269377,1.4781636771340523e-07,0.09477726969632605
1329.4675507042837,0.0021964041746623153,1.209982604770714e-07,0.0021962831764018383
1333.5318657371402,0.0002651788007570755,1.14069802906244e-07,0.00026506473095416923
1337.4208023583542,8.785192639970182e-05,2.220162752456042e-08,8.782972477217725e-05
1338.820378535782,0.004832884396681078,4.079826519359845e-08,0.004832843598415884
1344.878383216209,0.0005266321276794863,0.00010908528673787734,0.00041754684094160897
1352.5182295381992,0.0007597469591842929,0.0005415086744173666,0.0002182382847669263
1376.5736434483592,0.015270097499541255,0.00048643075646848534,0.01478366674307277
1377.7533845502317,0.004353118661047835,1.4941307668053073e-06,0.004351624530281029
1397.6379642257573,0.0033083795986210748,0.0006205366619435735,0.0026878429366775014
1403.1263563104085,0.0036993708069783236,1.4720495938662419e-05,0.0036846503110396613
1412.3182249233764,0.0013414197834381069,0.0009035713894193888,0.00043784839401871795
1415.4674041714861,0.005915209509556399,1.3682136505263926e-07,0.005915072688191346
1420.6759897348002,0.006995977917917185,5.354726043537361e-07,0.006995442445312832
1421.4819088483534,0.0037844384185044436,0.00017568832520611265,0.003608750093298331
1428.4899099697311,0.004331522607899734,0.0013470574166589628,0.002984465191240771
1444.8203867010889,0.004043417846312065,0.0026117635456432385,0.0014316543006688265
1473.6597235572392,0.011642043995610776,0.008738485021658578,0.0029035589739521976
1480.3669745118266,0.0036172846434330127,0.00021987414238601861,0.0033974105010469943
1480.6699877303195,2.4975297281238923e-05,1.8298733483792981e-06,2.3145423932859624e-05
1482.729972217711,0.0016546559740043707,0.001261752089597832,0.0003929038844065386
1483.6007601212675,0.03591442226622595,0.0021482815660516445,0.03376614070017431
1485.2589278892883,0.1980645083116606,0.015520858133638649,0.18254365017802193
1487.6466031975701,0.0014747673750003269,0.0012110295134177432,0.0002637378615825838
1491.4445319678375,0.02982797687683365,0.002343264691484892,0.02748471218534876
1493.7420304781392,0.02705871428226493,2.7394533782835885e-08,0.027058686887731147
1495.4786084515097,0.0037680433492794946,0.00033691345974783306,0.0034311298895316616
1495.724671027151,0.02465522105600182,8.479363895653014e-05,0.02457042741704529
1498.2964183856432,0.005032344093444345,0.00010995868620282279,0.004922385407241522
1499.7114684447686,0.00458986362421505,2.9593269699519844e-05,0.00456027035451553
1503.5186515660575,0.0012261676266879012,1.3332429918443707e-07,0.001226034302388717
1506.1171216452608,0.0011380795165515706,0.000142923884377629,0.0009951556321739416
1508.9952084852844,0.012864928432554434,0.001336472124278839,0.011528456308275595
1519.3638497234767,0.056555226097565095,0.0006018356493642686,0.05595339044820083
1523.7462133295721,0.00890523684005424,0.00043550021599268333,0.008469736624061556
2987.0297652289323,0.19854844184275944,0.19668842936214384,0.0018600124806156086
3007.01669488164,0.7574059077670751,0.7360967937815777,0.021309113985497445
3011.161481045388,0.427644340761564,0.39960883367352246,0.02803550708804154
3019.214663481463,0.2513844838983974,2.6008249277128554e-05,0.2513584756491203
3021.0581539766526,0.7030029191391812,0.6418610273733084,0.06114189176587283
3021.794230950195,0.044267465986980996,0.039320262687234854,0.004947203299746141
3022.381388079255,0.020488084728772896,0.018460383710010006,0.0020277010187628912
3023.9689796162274,0.21204658167891216,0.19529162309440407,0.016754958584508085
3024.5291893094245,0.787622823992214,0.770854596311398,0.016768227680815977
3026.2086209576855,3.0721560570306177,3.0168733604093623,0.05528269662125534
3028.9242951563037,0.007650099020645311,0.005777641888597843,0.0018724571320474681
3030.8562913118512,0.6212465790532085,0.39526725638664784,0.2259793226665606
3034.0621230833153,0.19475202395583674,0.1831989510016867,0.01155307295415003
3035.0692975991115,0.36972704231855963,0.014875578757614397,0.3548514635609452
3038.5297612878862,0.05366936720102905,0.04611178559729947,0.007557581603729578
3041.271982068899,0.4125474271099605,0.38257733533559246,0.029970091774368053
3043.50890892044,1.2899018944841019,1.3991668862577453e-05,1.2898879028152392
3045.32394954936,0.028203086093877356,8.809159205630495e-06,0.028194276934671726
3048.9894114725716,0.3238694752959441,9.20868215005062e-05,0.3237773884744436
3049.842554943947,0.9130462563134751,0.9056487090804224,0.007397547233052776
3054.198219494506,0.00811829627885299,2.2015849525666937e-05,0.008096280429327323
3058.4544567963917,0.19874346936994702,0.05675491134989827,0.14198855802004876
3059.401506014136,0.3634932974288523,0.3559703710598268,0.00752292636902544
3061.2111438073694,0.11708051749160302,5.897306161948161e-05,0.11702154442998354
3065.1834569562284,0.010009970219363057,0.00046574668809760305,0.009544223531265454
3069.5528411998075,0.015178859112903184,1.03739984133732e-06,0.015177821713061847
3077.2416388399033,0.0862861195107409,1.280420532714725e-06,0.08628483909020819
3083.9573431544645,0.01024633875324469,1.295272023442899e-06,0.010245043481221247
3089.170438907143,0.016382849390360305,1.9715259097750345e-05,0.016363134131262554
3105.550435467113,0.054288503841411116,2.2002612192573945e-05,0.05426650122921854
3112.821024930543,0.12853700550714897,6.9157476229106145e-06,0.12853008975952607
3118.7498098748442,0.5088179767824431,0.2218609229640259,0.2869570538184172
3120.8732211156753,0.4092694462008954,0.06220013648155072,0.3470693097193447
3843.8488556835177,0.24214372180415822,0.2002512787282491,0.041892443075909114
