frequency_cm1,total_intensity,isotropic_intensity,anisotropic_intensity
2.736877225032434,0.0,0.0,0.0
8.62744509981953e-06,0.0,0.0,0.0
1.9207710971098754e-05,0.0,0.0,0.0
4.0324735655962615e-05,0.0,0.0,0.0
0.6896138133342846,0.0,0.0,0.0
1.0645491108384717,0.0,0.0,0.0
17.012930999676993,0.0006051824533192015,8.834296841655115e-06,0.0005963481564775464
25.431155867720864,0.001836252903093093,1.0285308053271034e-06,0.0018352243722877658
39.48975505538609,7.94989729242464e-05,1.296927063408112e-06,7.82020458608383e-05
40.18239170322189,0.0005813948817404858,2.9524457665423697e-05,0.000551870424075062
65.32289666580749,0.0013479062010122776,5.568569466758574e-06,0.001342337631545519
75.64303266896322,0.0007914430837506444,6.939145910491205e-05,0.0007220516246457324
91.22458092028378,0.00020970725372424127,2.3868606230760313e-05,0.00018583864749348097
103.73952383678072,0.0013780152124181508,0.00020381373073285417,0.0011742014816852966
120.45090289128079,0.00028495091392008497,4.4536395711336184e-05,0.0002404145182087488
123.14645437929039,0.0004516931738014707,0.0001793490996070468,0.00027234407419442387
150.26963340963272,4.220916606197454e-05,1.7019534687829393e-05,2.5189631374145144e-05
164.3636894574491,0.00024420227979367386,0.00010526654223781981,0.00013893573755585406
186.78068102168538,0.01990436641458616,0.013918082447047892,0.005986283967538269
213.50137104304272,0.000918475078856793,0.0005782195585641918,0.00034025552029260124
243.24968724508437,0.00011163176834714299,2.738831906402227e-06,0.00010889293644074076
245.94529896712308,1.9581711523047483e-05,1.789494507345122e-08,1.956381657797403e-05
257.5433106813476,0.000788869055962978,0.00017956865041147087,0.0006093004055515072
286.8124918279227,0.001489763902895908,0.0011892664194021081,0.00030049748349379984
343.8649952604686,0.000911793046617992,0.0002530365318218069,0.000658756514796185
356.01233566680946,0.0027943423322547185,0.0003218970656076432,0.0024724452666470753
449.7066164843975,0.002315494832570075,0.0012387203820567786,0.0010767744505132961
464.42960936206094,0.0005087006212847574,0.0001625946878132676,0.0003461059334714898
470.6706762509925,0.0012347694413953046,0.0005670496369172402,0.0006677198044780643
521.5876208006239,0.003418819932566006,0.0008027164101321869,0.002616103522433819
654.920478210743,0.008667871647778732,0.004348265651521522,0.00431960599625721
712.915702462461,0.002391875540903363,0.0016710040993227165,0.0007208714415806462
729.012939629831,9.787525986196371e-05,3.548147725853716e-05,6.239378260342655e-05
739.033082848565,0.0005990198032947451,0.0004441531368771643,0.0001548666664175807
751.5826719666846,0.002578143353393529,0.0002878318130607114,0.0022903115403328177
773.4079064902694,0.004073832459738146,0.0031367553161460978,0.000937077143592049
822.8222402343486,0.024590319018080335,0.01862019150962202,0.005970127508458316
837.1292762978514,0.031073259427257395,0.021189548284629413,0.009883711142627984
868.6617801311434,0.019324148119659452,0.012724919417102777,0.006599228702556675
906.7270241443845,0.02386670738962301,0.01114148921446533,0.01272521817515768
911.0543958828478,0.015358974799345441,0.008888197717626127,0.006470777081719313
925.1156415411535,0.014542583183868547,0.01186440392325245,0.002678179260616098
958.9268538953205,0.0005635028962304575,0.0003993223161682216,0.00016418058006223592
1002.9160822233669,0.007046171638591843,0.005738941129234611,0.001307230509357232
1022.9541675923905,0.0014616731123064598,0.0007908474917386386,0.0006708256205678211
1027.184175004973,0.0012319550266588013,6.056200846449068e-06,0.0012258988258123523
1044.438286764668,0.012772534714200989,0.006873197655588132,0.005899337058612858
1053.7971309703482,0.020597061809438297,0.005962824480964267,0.01463423732847403
1071.5990797185138,0.018196428128154002,7.19495620604334e-06,0.01818923317194796
1076.6667882776096,0.03999009742004838,0.016388258087208937,0.023601839332839443
1083.1212049531446,0.018046901099495343,8.916693107747996e-05,0.017957734168417862
1089.4832191291268,0.008323783066444995,0.0013693582186339892,0.006954424847811005
1090.7722700452007,0.04130225752869703,0.0010293123311174326,0.0402729451975796
1106.047961259076,0.02349327327272946,0.008235094800696225,0.015258178472033236
1148.5756728592498,0.011205188065134793,2.269698051812022e-08,0.011205165368154276
1154.5006442816748,0.14888938835143134,0.10216938382198361,0.04672000452944772
1161.1417114114947,0.012815151382796545,0.0034121292899026876,0.009403022092893858
1210.4355221645155,0.006971821225021089,0.0007641617504554513,0.006207659474565638
1234.187688068988,0.011766368637318857,0.003603188608399096,0.00816318002891976
1239.4228079035315,0.00223969303146696,0.00015062795940120143,0.002089065072065759
1257.4845736442999,0.0013790615454740264,4.218847633580028e-05,0.001336873069138226
1271.366950645918,0.009008836702085736,0.006002526523871749,0.003006310178213986
1285.6371963070426,0.0020692088863800144,0.0005773009605529708,0.0014919079258270437
1294.863328040961,0.0022804909665293874,0.0006296210223139202,0.0016508699442154674
1320.547863801973,0.0030473879698388437,0.00024297722838603975,0.002804410741452804
1326.822644623083,0.0834089773113296,2.917954041364182e-05,0.08337979777091595
1329.145331411251,0.011912183090152018,0.000200422239355134,0.011711760850796884
1331.2879887999418,0.01660665794407593,4.393467571178517e-05,0.016562723268364145
1335.2945499772582,0.007021857009772491,0.00020056000711106796,0.006821297002661424
1336.5792193122934,0.00897765720997129,5.413946281825028e-07,0.008977115815343108
1337.3958490289701,0.00481630208076769,5.84144559308161e-06,0.004810460635174608
1369.2222359364002,0.001140429019221536,2.825708946927507e-05,0.0011121719297522608
1391.9591256467884,0.004116325021551697,0.0009991869339295435,0.003117138087622153
1406.6891840619903,0.00420900417113062,0.0005772056372981338,0.0036317985338324863
1410.4151333115058,0.0030711141473600736,0.001032220956753701,0.0020388931906063727
1413.0135526825463,0.003290440207263507,0.002242873514840389,0.0010475666924231182
1414.3742597967869,0.005206501736883353,0.003082332213646899,0.0021241695232364537
1420.2572923929717,0.003137566033282631,7.423063249193843e-05,0.0030633354007906927
1422.221413789307,0.00629280196686665,0.00013359165075907262,0.006159210316107578
1447.3196930673287,0.0047542949281546695,9.231593710555818e-06,0.004745063334444114
1455.795732222757,0.031665821918177676,6.137419115942123e-06,0.03165968449906174
1478.7565273787914,0.035584231379230835,0.0010722684299601154,0.03451196294927072
1481.1917734076426,0.0008722590924167548,0.0002692977238464777,0.0006029613685702771
1481.9899907851275,0.02663650154095143,0.0014774189908294873,0.025159082550121944
1484.8825756725632,0.12183274328230524,0.006473227868097393,0.11535951541420784
1488.5712019843058,0.0043040968895676586,5.363837331753381e-05,0.004250458516250125
1489.6415443234273,0.028670444420417666,0.0008959361099499203,0.027774508310467745
1493.8062506607116,0.027162262660703495,2.359482071110677e-07,0.027162026712496384
1494.0058369832386,0.025615469804592478,8.104924287029015e-05,0.025534420561722188
1495.3640437663946,0.010812347647478427,0.000546607183942576,0.010265740463535851
1501.9770024029708,0.0012275004023721667,0.0005162995849313425,0.0007112008174408242
1502.320758564151,0.0028490001117858444,0.0002045266020172022,0.0026444735097686423
1506.0056836019885,0.001889721134582092,1.6042925228776646e-06,0.0018881168420592143
1812.458641762316,0.03469785212361193,0.01588832027789859,0.01880953184571334
3020.8705378750633,0.03537234939639157,0.034899612903153174,0.00047273649323839747
3023.9657002973263,1.5645192601578715,1.5138335587162763,0.05068570144159514
3025.671150376843,0.10529211721757487,0.09191148022708452,0.013380636990490339
3031.814297607894,0.5893908984449411,0.577069853992487,0.012321044452454124
3034.507655925633,0.13072155666368024,0.1114382121835718,0.01928334448010844
3035.8180641512677,0.12356732729932027,0.025435449870238075,0.09813187742908219
3039.8728847381694,1.029084994757505,0.9226387179045531,0.10644627685295191
3041.21095477164,0.5105830993116508,0.47146292861854633,0.03912017069310446
3044.4380729479776,0.9280667839557227,3.9887259296267156e-05,0.9280268966964265
3048.6673635843954,0.0006703564053500326,6.48422156575828e-05,0.0006055141896924498
3050.0422082039076,0.5057424303934737,0.49394185665741996,0.011800573736053647
3050.112715067139,0.8546633931874635,0.8473761683799784,0.00728722480748514
3056.1901406187976,1.399825808019229,1.2980285746622429,0.10179723335698602
3059.3542611786297,0.26741953501386795,0.02782375697044299,0.23959577804342494
3061.834804134628,0.037913067309179475,0.0326368094307404,0.00527625787843908
3062.635998782972,0.2018108977577901,0.17471477666419047,0.027096121093599643
3073.7460742438075,0.3674929200508342,0.021442220862924164,0.34605069918791004
3075.3305270358546,0.1478561635725797,5.6550317764553994e-05,0.14779961325481514
3085.886647007737,0.031692550240233035,9.449349232044904e-07,0.03169160530530983
3086.2981562323516,0.2928006431866266,0.006048988802409329,0.28675165438421724
3103.5572793510296,0.008367825583452579,0.0018476107495629087,0.00652021483388967
3105.496641003913,0.02974436255634872,0.0007308023719503499,0.029013560184398372
3113.079931884691,0.1313074368414943,9.629363570931604e-06,0.13129780747792336
3117.558122062469,0.15152800878205433,0.01860334308469058,0.13292466569736375
3121.403027753582,0.41205330611432023,0.06329838291259013,0.3487549232017301
3124.0673644595427,0.3233164460559381,0.03574241712580879,0.28757402893012934
