frequency_cm1,total_intensity,isotropic_intensity,anisotropic_intensity
1.0181313939591132,0.0,0.0,0.0
1.6211936339235318e-05,0.0,0.0,0.0
2.0244792617089792e-05,0.0,0.0,0.0
2.7804323768982216e-05,0.0,0.0,0.0
0.93081029016632,0.0,0.0,0.0
2.19832544831932,0.0,0.0,0.0
14.031094641359969,0.01115963832453739,0.00028493641123443497,0.010874701913302955
21.56882657554719,0.00805341263822343,0.0006762992612333399,0.0073771133769900896
32.18900075831955,0.028995995557175473,0.0021430051365174357,0.026852990420658036
37.75844760370462,0.004285550601033979,0.0005452201683579477,0.0037403304326760305
61.263474738593025,0.0035949653371600125,0.0007954770132144465,0.002799488323945566
73.3948192773211,0.005775054777804062,0.001351569545428369,0.004423485232375694
86.58378796616135,0.014231532335791877,0.0036896801531763703,0.010541852182615507
116.65653946092249,0.01498758782277388,0.00523449074241156,0.00975309708036232
120.02294730819851,0.046124940443503425,0.015426518415777857,0.030698422027725568
149.71257070859676,0.005189638868906088,0.0012263627026459429,0.0039632761662601445
173.27364365809217,0.112785124090729,0.058270746086901214,0.05451437800382779
194.26477700841548,0.06438819684348054,0.016175440598319032,0.04821275624516151
210.7205269094194,0.017039275703279934,0.003250090158639158,0.013789185544640776
220.3503983239527,0.0014842286607027596,0.0006933488352008299,0.0007908798255019298
240.6729824782631,0.00492707980464971,0.002188922050519431,0.002738157754130279
245.65505143579674,0.0027097976183213233,0.0008191905383594665,0.0018906070799618567
271.2741770489031,0.019385621669463077,0.006583155280593259,0.012802466388869818
288.98679804445925,0.0311659142981823,0.012899375947708102,0.0182665383504742
317.68992814746673,0.010263609844863691,9.975398189783513e-05,0.010163855862965856
334.3753707884934,0.003821055177854348,4.9930988576652225e-05,0.0037711241892776958
354.05836226692463,0.00612921800327042,0.0004190151692408459,0.005710202834029574
382.77630992571454,0.008850375893558332,0.0021844044946718435,0.006665971398886489
425.0347178512649,0.06865770865083398,0.02532536932100082,0.043332339329833165
437.4259666105593,0.012168316785994067,0.006881546309623175,0.005286770476370893
449.7461673338692,0.015598130940098038,0.0019725733208602915,0.013625557619237746
454.63173376215246,0.002264292950335094,1.0721915869342009e-05,0.0022535710344657517
490.501511507739,0.0006461294254265574,7.902177955272146e-05,0.0005671076458738359
513.1848595284537,0.006001310735927881,0.002791556542206433,0.003209754193721448
530.1059584361382,0.011913438276454033,0.007977697918047465,0.003935740358406568
550.010534920705,0.016891910766705764,0.004628621503629467,0.012263289263076297
592.2137823227498,0.01795712806825938,0.009664659628632189,0.008292468439627191
643.434017940612,0.02162696344456902,0.01699560353322198,0.004631359911347039
656.9433292128601,0.024686442264694585,0.0005413209078407475,0.024145121356853837
659.3326601969189,0.011190071537762912,0.0001652252551179346,0.011024846282644976
734.6287972114493,0.0004627666812247122,1.0525115237983559e-05,0.00045224156598672866
741.4725901824728,0.1996461445750961,0.12261842677318648,0.07702771780190962
744.2535349792935,0.02116627803236333,0.007909478551062369,0.01325679948130096
757.3683005679695,0.016036200419339324,0.00689503288548579,0.009141167533853533
794.8288644953064,0.001981444204144149,2.9226340321634566e-05,0.0019522178638225142
800.3278774766281,0.09881333000598587,0.07039018433261401,0.02842314567337185
837.9426538241024,0.0007728998015472063,0.00015415401452750627,0.0006187457870197
851.168155690528,0.02318030262338532,0.013126771400753124,0.010053531222632195
855.1871967627711,0.0016102894340442296,1.2732237814284324e-06,0.001609016210262801
858.3337750763934,0.051514237211010894,0.014957321989624798,0.0365569152213861
862.6540492482724,0.04624808807192783,0.0414229522777692,0.004825135794158631
907.8351995833947,0.08751315522916873,0.0035844014578909713,0.08392875377127776
923.9280467672464,0.055931911111736836,0.03796875264036316,0.017963158471373676
936.0846969956597,0.0012277796723114437,1.4322173211540334e-08,0.0012277653501382322
981.980455808029,0.002207419098715974,0.00047884529298796016,0.0017285738057280138
989.2209003422487,0.035794392169345116,0.02448331586872905,0.011311076300616065
1000.2057071872355,0.03998922969456423,0.01469625346497478,0.025292976229589446
1010.620372395152,0.028651954172844066,0.0116675067571218,0.016984447415722265
1033.9099362651032,0.160768653524564,0.07469240653644565,0.08607624698811833
1035.0005321001836,0.06716520970473171,0.0172886215151107,0.049876588189621006
1042.7788675057518,0.0029349382840482083,0.001136704255821151,0.0017982340282270573
1081.6247684639666,0.04434395132590976,0.009088352965091452,0.035255598360818305
1086.4605026633908,0.0442018501693576,0.028763405069885215,0.015438445099472387
1093.6340044338817,0.005088899523903515,0.0004264354765298743,0.004662464047373641
1119.5867351613772,0.3788799732506648,0.151727267984961,0.22715270526570383
1132.2599210704059,0.09441841007124374,0.0628724198600421,0.031545990211201635
1136.701853619878,0.011597685342593728,0.00020870228384404273,0.011388983058749684
1170.547400147941,0.0030931786725800514,1.0421623343089949e-10,0.003093178568363818
1189.24413196463,0.26785318759078103,0.1703130808799415,0.09754010671083957
1197.047824479998,0.7114650980801993,0.4135935321449132,0.2978715659352862
1199.1752298865288,0.0275049846279472,0.005024343579669001,0.0224806410482782
1229.1160831774089,1.9186843422669781,0.8832682474696135,1.0354160947973647
1230.4093635672773,0.23865142238395914,0.09072928337871593,0.14792213900524323
1236.6133912544217,0.7469504001885714,0.40130210211280487,0.34564829807576647
1240.6302776776604,0.27994746049628005,0.2084935978181495,0.07145386267813056
1275.849825072568,0.3486818590116208,0.14306095672529617,0.20562090228632462
1282.5768831308264,0.077260176093446,0.05893515945759619,0.01832501663584981
1291.2841237190946,0.1306840914304216,0.054485909398873884,0.07619818203154771
1299.1210946501553,0.8715312847316794,0.39406055033880494,0.4774707343928745
1314.716967339385,0.13540960068021052,0.0742721317528987,0.061137468927311825
1326.5813387679977,0.055882734653134175,0.008866403285093336,0.047016331368040835
1331.0217304278785,0.042819672701285755,3.400262153483164e-05,0.042785670079750926
1344.6572092907054,0.014982889590847773,0.005116967150363218,0.009865922440484556
1364.5009078084524,0.11963722426311038,0.04901943698386483,0.07061778727924556
1379.4337180289676,0.4001962897203172,0.1858838535573795,0.21431243616293766
1403.854734385875,0.04850306743346176,0.023619199752656583,0.024883867680805177
1412.791421172734,0.0014623892446003288,0.00035782113310856223,0.0011045681114917666
1414.2504778544421,0.08709267827759072,0.028576088180633636,0.05851659009695709
1462.9964520183107,0.013766579350021712,1.3956439168539645e-05,0.013752622910853173
1472.2527310126266,0.21457797246837745,0.1343230326440155,0.08025493982436196
1482.6713563088938,0.12962948018166778,0.02174959179505516,0.10787988838661262
1486.0650164086776,0.08938646619979537,0.018039900448256024,0.07134656575153935
1486.6547920665992,0.010281171109650343,0.0016150977618035038,0.00866607334784684
1493.360139376998,0.026758272141139485,6.182275507993325e-09,0.026758265958863978
1493.8676101916715,0.04694459755336615,3.4951797841627366e-06,0.04694110237358198
1496.1850121020486,0.02605761079474334,0.0001544278953356755,0.025903182899407663
1505.6333865573472,0.004633533591766855,2.0341698259324686e-05,0.00461319189350753
1507.2895292331793,0.00768306174937575,0.00028536425600352814,0.007397697493372222
1558.123306435644,0.9979484166903478,0.35154710763669866,0.6464013090536492
1567.945493563163,0.06290006281214497,0.02610095139186263,0.03679911142028233
1647.4747587926504,0.02785001064190963,0.007795677960529489,0.02005433268138014
1660.183258621262,1.267570693452589,0.34791888784882014,0.9196518056037689
1686.922477910439,11.120469257146603,3.9529256022112413,7.167543654935362
1695.0322624727853,0.22431541356384221,0.015649821504582613,0.2086655920592596
1738.4604747273356,11.170141345255765,4.748700026763222,6.421441318492542
3035.046200721061,0.9878655190604887,0.9472434785182366,0.04062204054225207
3036.5027450459816,0.9399124342602151,0.8897854345502725,0.05012699970994261
3041.010953532129,0.008540963263399412,3.207089169175035e-05,0.008508892371707662
3050.3738640326455,1.6994374193079442,1.6407659309741949,0.058671488333749355
3052.235674050752,0.10908859308924874,0.005697868093618334,0.10339072499563041
3060.2250567687624,0.587224165016624,0.0006040991831095504,0.5866200658335144
3078.016122295117,0.0021069336431751183,0.0004625453162284633,0.0016443883269466547
3098.3722389330615,0.16995589082585588,0.0009928418490505403,0.16896304897680534
3098.4135361168596,0.2238802675464031,1.2922232050534614e-07,0.2238801383240826
3099.7350006976462,0.15923774002209318,0.07593231228247052,0.08330542773962267
3114.7814475341356,0.10856648347583253,5.652766174133316e-05,0.1085099558140912
3122.8920591678175,0.4927358143182306,0.09206836020880164,0.40066745410942894
3168.1788074667015,0.773206729690373,0.28162626171688765,0.4915804679734853
3181.8098496829107,0.531343676647084,0.22417850784689677,0.30716516880018724
3183.375793695474,0.41379458303563504,0.17489703072538484,0.2388975523102502
3210.844330239357,0.44315688315200913,0.25019705531949976,0.19295982783250937
3211.025641429473,0.16314785304872476,0.08883353299404086,0.07431432005468389
3216.1060645499197,0.6343150291495074,0.4575624992119424,0.17675252993756496
3218.0549711704216,0.28150295462340513,0.0016025224177158397,0.2799004322056893
3231.9632891712686,0.8019059437757746,0.6014047189774262,0.2005012247983484
3877.70606721434,0.5433139113723364,0.3555998753177595,0.18771403605457695
