frequency_cm1,total_intensity,isotropic_intensity,anisotropic_intensity
2.203086311113342e-05,0.0,0.0,0.0
2.1585953339117858e-05,0.0,0.0,0.0
3.0176305532789587e-05,0.0,0.0,0.0
0.8440098364500002,0.0,0.0,0.0
1.1012760129867178,0.0,0.0,0.0
4.157198652172314,0.0,0.0,0.0
19.464798412129024,7.2664390994446745e-09,2.590880864420571e-11,7.240530290800469e-09
25.5267126909082,2.440186370728873e-08,8.323275039710097e-10,2.356953620331772e-08
40.957188168337204,0.00173609223286591,0.00019738200313769398,0.001538710229728216
41.12857403487283,0.003778152738441556,0.00043395456335107717,0.003344198175090479
45.50973088545238,0.005709988834163966,1.5458046897514457e-05,0.005694530787266451
48.20400940993352,6.574737044855648e-06,1.229021437627916e-07,6.451834901092857e-06
68.28393017353896,0.0059485773899030335,0.00019952501996029485,0.005749052369942739
80.68644600802364,1.8043924625242163e-08,2.444615732098142e-10,1.779946305203235e-08
90.18030098693787,0.0020797855830252793,2.3679526127180795e-05,0.0020561060568980985
118.87951390732879,1.1187061592437792e-08,7.560767958898465e-10,1.0430984796547945e-08
140.83589920277115,0.0010017568318740114,0.0005057979820576913,0.0004959588498163201
152.87760493798373,3.240282148633084e-09,1.4595703018402132e-09,1.7807118467928705e-09
217.99560422493434,0.010747616297061025,0.00895712626855987,0.0017904900285011548
240.13457612369348,0.008236891635074121,0.003861194620299769,0.004375697014774352
285.5543136184084,1.3041873728362727e-05,2.1000847286123397e-06,1.0941788999750387e-05
285.74001077509087,0.0017824629336279088,0.00028985684779177885,0.00149260608583613
366.07371765352013,1.5716436160658506e-08,9.765202604788788e-10,1.4739915900179629e-08
389.3761210310451,1.5322174103846877e-08,5.511095126005711e-11,1.526706315258682e-08
409.78749884035915,0.0009796128314456727,0.0002824467702704881,0.0006971660611751846
412.04405756095406,8.515038613558031e-07,2.8311970372400294e-07,5.683841576318001e-07
435.7222691987346,0.003896778717093073,0.0002090481516764897,0.003687730565416583
506.97508498663666,9.891596914565583e-09,1.6692365289943826e-09,8.2223603855712e-09
519.1099605552122,0.005067070456690202,0.00021080711667030116,0.004856263340019901
620.0591093108926,0.018163854505674516,0.007871165116169697,0.010292689389504821
622.2129502963762,2.3586011039806294e-05,1.0231176628252935e-05,1.3354834411553359e-05
661.5297106527127,0.015514948898597433,0.007530210591028049,0.007984738307569385
663.894564111817,6.711187923549704e-06,3.265207264638257e-06,3.445980658911447e-06
734.3679040758835,3.4938726442444315e-09,2.0979215772962156e-09,1.3959510669482157e-09
744.8033476652432,0.010707670898620868,0.005343728209658567,0.0053639426889623
777.3052236219845,2.013241009655055e-08,3.799225037330738e-09,1.633318505921981e-08
843.0554443154763,0.05772464926737218,0.045423576057358694,0.01230107321001349
898.5214695507909,2.0114881420241557e-08,8.895161117364687e-10,1.9225365308505088e-08
940.2260613792168,0.029455856692041,0.027205717297386148,0.0022501393946548535
996.6132232650199,1.098750117317658e-06,7.236743937327232e-07,3.750757235849349e-07
999.5025790849145,0.05474198694083818,0.034486887610933284,0.020255099329904894
1020.3851917135898,1.8896854356864586e-08,5.761982998409204e-13,1.8896278158564745e-08
1025.3180819550325,0.0060184702685746674,0.002907617409213937,0.0031108528593607305
1036.605643443611,3.948252948127339e-08,1.3211461987244733e-08,2.6271067494028657e-08
1055.1793856513418,0.0004977800752813522,6.717118720126135e-06,0.0004910629565612261
1055.547837318366,2.314890631486003e-08,1.2263413942165731e-09,2.192256492064346e-08
1070.2034550746746,6.777859129383448e-09,1.7403112510214472e-10,6.603828004281304e-09
1088.3426813282492,0.03940187975808823,0.0007750513296178237,0.03862682842847041
1122.156242460509,0.07935530296519241,0.05604194933780887,0.023313353627383546
1123.1358056503068,1.753838076681322e-05,1.2398436430363508e-05,5.139944336449715e-06
1125.726081615928,0.09714483400652035,0.05399757965339113,0.04314725435312922
1182.421424384733,0.010059780373615854,0.006615819345397569,0.003443961028218286
1211.3511771642063,8.58984680889404e-09,9.557253472790795e-10,7.63412146161496e-09
1243.5169251780649,1.583496427633315e-09,1.67888761951488e-11,1.5667075514381663e-09
1265.2777794389162,0.021762141505524107,0.0109288173469818,0.010833324158542306
1283.6377596377472,4.382482069229595e-08,3.0518141592474095e-09,4.077300653304854e-08
1290.6642994767167,0.018997269398956594,0.00046951071587307905,0.018527758683083515
1306.0301872872826,0.012142765181864298,0.002856830655886612,0.009285934525977686
1323.007477885458,1.6477274265774964e-08,3.4265447321754803e-09,1.3050729533599485e-08
1333.2067846661153,0.07791067859126558,0.0008797201047485197,0.07703095848651706
1346.6864750149175,4.719789217272431e-07,1.0076904487981434e-09,4.7097123127844494e-07
1348.4551860518334,0.020989262440366547,4.2901265934030556e-05,0.020946361174432517
1366.7854680485443,6.574417542892315e-09,5.250540017210047e-10,6.04936354117131e-09
1396.3515172691245,0.012407353709568466,0.0038242105411688326,0.008583143168399632
1396.7205136870411,3.0814497870201045e-06,8.514479892866416e-07,2.2300017977334627e-06
1408.805278679382,0.009312486000783821,0.0015839193018865358,0.007728566698897285
1421.8930962048266,1.713859376132816e-08,6.8303159828218215e-09,1.0308277778506338e-08
1422.7259441659162,0.010795741290598106,0.0027893627301084833,0.008006378560489623
1468.832655379936,0.0002257626415290937,3.2396856946497906e-05,0.00019336578458259578
1468.9256651403437,0.025060828646449086,0.004119382581188787,0.0209414460652603
1470.4913472383837,0.0007839647646917787,4.282843112199001e-05,0.0007411363335697886
1470.5622195143492,0.08670674897379342,0.005275326611532366,0.08143142236226106
1482.5170815236097,0.0956715882761099,0.008242090197673654,0.08742949807843625
1484.7498443153454,3.94095919425537e-06,4.973063946040196e-08,3.8912285547949685e-06
1484.8621155028902,0.038790730494585174,0.0002519946442497921,0.03853873585033538
1485.5330836651328,1.581033112341792e-07,4.3569111160208005e-09,1.5374640011815842e-07
1495.2194633380057,0.0072600606356402215,0.001220784006966098,0.006039276628674124
1503.669948212982,1.6929266082788958e-08,4.9682532912859416e-11,1.68795835498761e-08
1555.2920707174453,8.409559907562574e-07,2.642841793549429e-07,5.766718114013145e-07
1555.969097817187,0.004763781025305007,0.0015589842451632354,0.0032047967801417717
1764.1054220428036,0.015182532711371249,0.007999539113996817,0.007182993597374431
1764.155380878496,0.07956934447554498,0.04192145686830865,0.03764788760723632
3025.5696546610347,0.8958187370499823,0.8673069412212331,0.028511795828749145
3031.56141767279,3.72009427253384e-06,3.529926410157978e-06,1.9016786237586186e-07
3041.4586614142277,1.0420547958627844,0.8328793269046006,0.20917546895818367
3044.2067933411645,2.8103212524157545e-05,2.1656513509964884e-05,6.44669901419266e-06
3055.5525610138407,0.4368679338407935,0.06895503523735444,0.367912898603439
3071.6699712782347,1.3033739388294947e-05,1.150842468602652e-05,1.5253147022684262e-06
3074.2105378657757,1.2438447824237366,1.0956280539738876,0.14821672844984898
3076.7027804493814,0.02308425409079551,0.022849905442364784,0.00023434864843072478
3076.802491173026,1.5076578374647802,1.4910614530301574,0.016596384434622944
3077.0944374820033,0.0006556387001575517,0.0006518197666773391,3.818933480212578e-06
3095.308381668023,0.21526003741079056,0.0007910163072484467,0.2144690211035421
3099.5637498962365,1.1015110706608088e-06,4.116226465981939e-08,1.0603488060009894e-06
3129.089230237025,0.22157259228211568,0.02209350740547554,0.19947908487664015
3129.4291766013744,0.00045641097453403716,4.6355411398149955e-05,0.0004100555631358872
3147.8649848795617,0.2265882020356079,0.00816527424652216,0.21842292778908573
3148.0049300305054,0.2252431111869681,0.008398847177588434,0.21684426400937967
3162.420516193903,0.31879408052583874,0.03250723026220966,0.2862868502636291
3162.576853474156,0.31958674897661143,0.032939247733034055,0.2866475012435774
3695.4207102075866,0.6635537421045555,0.4920056771213309,0.17154806498322464
3695.5030355683616,0.21598286172731604,0.16013703043359986,0.05584583129371618
