frequency_cm1,total_intensity,isotropic_intensity,anisotropic_intensity
1.3834339888945988,0.0,0.0,0.0
0.3741896098967384,0.0,0.0,0.0
6.99789617355658e-06,0.0,0.0,0.0
1.4388852357164494e-05,0.0,0.0,0.0
2.7030625578345887e-05,0.0,0.0,0.0
1.2244710901420879,0.0,0.0,0.0
28.708278987910887,0.026481076364924427,4.512547045541574e-06,0.026476563817878884
30.512590857105586,0.012913724179644455,7.659511961376466e-05,0.012837129060030691
34.5047199661698,0.0014155204601428795,4.990384895877755e-05,0.0013656166111841019
73.58361140582754,0.01817181841991304,2.4816588279022194e-07,0.01817157025403025
76.23541808930895,0.023446247517166424,0.00011768658653778161,0.023328560930628642
101.13625850212841,8.4709636848757e-05,2.427280645923546e-07,8.446690878416465e-05
113.79098926596002,0.0012437951175078936,9.467418722416041e-07,0.001242848375635652
136.67293501398038,0.0005037551752061255,3.939631822205604e-06,0.0004998155433839199
144.34623604291974,0.0004982212031112885,1.2084292801701362e-08,0.0004982091188184868
218.67299757713022,0.015679631441839027,0.010573300947446244,0.005106330494392783
242.38274793954895,0.006788114755508515,0.00035053393023488493,0.00643758082527363
246.27297416371883,0.0009676963229729803,7.494218892584239e-06,0.0009602021040803961
298.4207284698846,0.0009105560336065981,3.7152258510744495e-07,0.0009101845110214906
330.9893497706126,0.00940125175976307,0.00048050428324117306,0.008920747476521896
333.8577508057343,0.004476797104635639,5.7642217236348344e-05,0.004419154887399291
349.20515956189746,0.015895479263425782,0.004606308781748808,0.011289170481676974
421.421881778437,0.00024271578329573568,1.9957218743384355e-07,0.00024251621110830184
428.8307938369149,0.00855470590639546,0.00012045267666217588,0.008434253229733284
467.47920868602876,0.022089533992878312,6.425073060614612e-06,0.0220831089198177
478.37636889360465,0.07153827534841185,0.06188259997552037,0.009655675372891488
484.61957745847724,0.007230000113989828,0.005655519306558738,0.0015744808074310906
485.9798330059706,0.006316617925494392,0.004288348036562867,0.002028269888931525
605.985672733419,0.00028367964991730477,2.595250426000465e-06,0.0002810843994913043
613.0170382491408,0.003788319689060815,0.00047017585559723665,0.0033181438334635785
663.6593101586101,0.015483263091740496,3.9751558123917054e-07,0.015482865576159258
719.2011595069291,0.044869777129572325,0.03712253616537845,0.007747240964193873
739.8962836685853,0.00013185367799315798,1.8136939007457758e-05,0.00011371673898570022
755.9928807999727,0.05449928908989418,0.05251790475141623,0.0019813843384779467
778.4320754727602,0.0006860529765764755,1.178955268508179e-06,0.0006848740213079674
781.5523889723254,0.04217336499886837,0.03985893876994507,0.002314426228923298
841.2888504083375,0.0017122453664835196,6.162876194239843e-06,0.0017060824902892797
841.6045655917351,0.003365893190439297,0.0009585449942952478,0.0024073481961440495
860.7371710942765,0.023327029888246927,5.327611135795795e-07,0.023326497127133347
927.194013169384,0.004712582789874657,0.004336132638497195,0.00037645015137746196
929.5563629726709,0.01599249044600082,0.014830291829797108,0.0011621986162037132
944.4891563796458,0.14655135092441265,0.13345456461350202,0.013096786310910637
987.0375291861417,0.00015414405320175268,5.548501413789404e-06,0.00014859555178796326
987.4995908628481,0.0007108901220254231,0.0002015925456875727,0.0005092975763378504
993.1409653312227,0.0003771295239611546,5.729101944503433e-07,0.00037655661376670424
1011.7901603354364,0.01193111598341001,0.008569179862210298,0.0033619361211997133
1029.3475261338738,0.0036972546502568944,1.5658335361795627e-05,0.003681596314895099
1029.6114757879104,0.003942571143093324,0.0007948291654186169,0.0031477419776747076
1059.687491267283,0.0007238681783858129,1.476970947989716e-06,0.0007223912074378232
1061.1831476602179,0.00147396766564015,0.00013854228368904162,0.0013354253819511084
1064.954964966178,0.0008585135575419421,8.57195276132675e-07,0.0008576563622658094
1065.4314088536373,0.0010320639660774135,5.614116516627826e-05,0.0009759228009111353
1076.4233280968203,0.0017295533273179863,3.5022802501787543e-07,0.0017292030992929685
1155.0612363604332,0.03295631729867945,0.021735784265419753,0.011220533033259695
1170.827834265344,0.0029669641743171236,2.6896579403584294e-07,0.0029666952085230878
1193.887964502727,0.05058760894410934,0.03307679877056504,0.017510810173544295
1241.230659473929,0.0018076654095539465,1.7865066530173045e-07,0.0018074867588886447
1242.5069915230001,0.018516937124500477,0.014544887754474314,0.003972049370026162
1250.0281436468415,0.008504239830670373,3.1735918565194964e-08,0.008504208094751808
1291.476796105747,0.0067409971151439945,0.0040768812573996885,0.002664115857744306
1292.9556682219413,0.0029406884524904304,5.491772924178475e-07,0.0029401392751980124
1308.8608919914868,0.12998369126189888,0.07404594854966874,0.055937742712230135
1316.4486193326077,0.001040731290296214,4.207572202403155e-07,0.0010403105330759736
1340.0279896086142,0.16778288301574618,0.15137469568949888,0.016408187326247298
1412.52212919252,0.0036389781667586292,0.00041866063133134745,0.003220317535427282
1412.8937668039766,0.04154699125436426,0.0013965037078968435,0.04015048754646741
1413.050805720578,0.04915095679818686,0.0404907238389329,0.008660232959253958
1418.8147011870276,0.021680476121928006,0.011848571172040332,0.009831904949887673
1436.2012957780078,0.008627239123840232,1.619161893222652e-07,0.008627077207650909
1462.2758739575029,0.03702243006521393,0.015287347517814671,0.021735082547399254
1477.2420401134511,0.002814495358295404,3.171166805603636e-06,0.0028113241914898
1481.8110578789465,0.0482621651289796,3.291897043424702e-07,0.04826183593927526
1483.135797710402,0.018265582268022672,3.994458943654694e-06,0.01826158780907902
1484.8081505662499,0.0573861155519551,0.0052674459957777675,0.05211866955617733
1488.5980819860247,0.017968504737954135,0.0017573356568163598,0.016211169081137775
1488.6061088412118,0.03678343773264427,0.0005141946369175442,0.036269243095726725
1501.1370552453795,0.00678817644148588,4.796720598561709e-06,0.0067833797208873186
1505.8377478091656,0.0037688582429189184,0.00038604107491402946,0.003382817168004889
1549.2827029321238,0.00048718977250216696,2.615748054904298e-07,0.00048692819769667655
1561.0421884158654,0.015500150791122894,0.01428637948648694,0.0012137713046359547
1650.0062289099985,0.02225336387265879,1.1021300581068587e-05,0.022242342572077724
1652.3880353937434,0.20814698092279355,0.12772557058037962,0.08042141034241393
1691.138189677296,0.14323562329467285,1.8890311359823284e-08,0.14323560440436148
1694.7610962629724,0.19982026339684114,0.0011660449908169298,0.1986542184060242
3054.63678591934,0.18607904031522873,0.0002696085247398883,0.18580943179048884
3054.7694999392115,2.3755413731148476,2.2666689234565225,0.1088724496583252
3060.601325875863,0.1710667192489838,0.08491897072954695,0.08614774851943686
3061.4756478649742,1.7708277955040987,1.7584489790794557,0.01237881642464299
3115.328850982562,0.3519123242002037,0.009862175046679472,0.3420501491535242
3115.400538873239,0.3163026720574535,0.01076370655994784,0.30553896549750564
3116.6728221245357,0.13543189347551962,0.0009182383880930016,0.13451365508742663
3117.3638945382836,0.22253411116461333,0.0020109962324626313,0.2205231149321507
3137.8635510001986,0.2794161856379217,0.00471613845099468,0.27470004718692703
3138.0020533972015,0.2771920319930123,0.004132464149863954,0.27305956784314833
3140.394531500423,0.30830191804434076,0.0009061257951656462,0.3073957922491751
3140.747058652549,0.1739184194306688,0.019269509522081552,0.15464890990858723
3182.097946117119,0.0779579085864075,0.021697042553579564,0.05626086603282794
3182.397922908843,0.1954890909653053,0.0650099957698518,0.13047909519545353
3182.659734478119,0.30492656629313214,0.003974022794303919,0.3009525434988282
3183.1774530422017,0.5528560979866473,0.31685490063295707,0.23600119735369013
3199.5571946921445,0.3113515547873294,0.0687590875568191,0.24259246723051028
3199.7325580402944,1.7580734465778372,1.3719512028963228,0.3861222436815143
