frequency_cm1,total_intensity,isotropic_intensity,anisotropic_intensity
1.930662547876914e-05,0.0,0.0,0.0
1.874375131370925e-05,0.0,0.0,0.0
2.4232388799260935e-05,0.0,0.0,0.0
0.5746747160240968,0.0,0.0,0.0
1.3444600409251997,0.0,0.0,0.0
1.6659995309051807,0.0,0.0,0.0
26.165995232871435,0.0005457207532046298,1.2586053883380434e-06,0.0005444621478162918
38.675460527610596,0.0001394055085642927,2.7211992059558604e-06,0.00013668430935833683
53.834211649156835,0.0013485052732694384,1.2545926109314373e-05,0.001335959347160124
57.47768636353455,0.00038366843725462805,2.5738276020678285e-06,0.0003810946096525602
79.20999711496286,0.0006845194157811469,7.15404001802209e-05,0.000612979015600926
88.36444756685593,0.00045843285771903484,2.6086506871628205e-06,0.000455824207031872
112.31550003769142,0.0016384480552936777,5.936555081468312e-05,0.0015790825044789945
132.49000332586115,0.0018605710694139855,0.00105527569334338,0.0008052953760706056
139.55327761356483,0.000427612514774776,3.651084270640973e-07,0.0004272474063477119
196.77714401215235,0.0017281165845080561,0.0008053386210773686,0.0009227779634306875
208.8696636909189,0.000509369569985373,3.1032750134444694e-06,0.0005062662949719285
222.41916205566412,0.00022596853071290415,6.668856673147133e-06,0.000219299674039757
230.26319376823415,0.0005083348866685381,0.00014411295261479513,0.00036422193405374296
246.9586109422257,0.0010999929634320973,0.0008597236892574806,0.00024026927417461675
251.50150723210507,0.0015211912291439465,0.0011039781256902722,0.00041721310345367433
263.8259017461229,0.00011041488934710462,3.864840255837075e-05,7.176648678873386e-05
279.4063612001271,0.0007869315233986695,2.893216626669343e-08,0.0007869025912324028
295.25101639530675,0.0028861950902494228,0.0026734754071604063,0.0002127196830890165
311.0015101430943,0.002647616564979244,0.002354359154647577,0.00029325741033166703
339.05250928018273,0.0020813990712516086,0.00045184743546819185,0.001629551635783417
354.7751897378242,0.0032480032089565215,5.409443528505949e-07,0.003247462264603671
376.6852135049025,0.0018840283700346735,0.000934464932378809,0.0009495634376558645
381.8970040317864,0.001227385982603432,1.8616825318990154e-05,0.001208769157284442
409.23010946779215,0.0021429774219405913,0.001383153371824803,0.0007598240501157883
415.33127646366864,0.0034820467169775935,0.002928834350124754,0.0005532123668528396
426.067168893568,0.005128419211517331,0.0044552281709347805,0.0006731910405825501
454.1571779286407,0.0052802033569647085,0.004214011902361124,0.0010661914546035846
478.4351507030563,0.0025704756047307095,0.0008792068028258645,0.0016912688019048452
502.9597503162113,0.012282236418011948,0.00984757984584566,0.0024346565721662886
565.8237502973095,0.005887495075243904,0.00011789949449699621,0.005769595580746908
712.9593489877386,0.00034960711433358995,2.2206185441672855e-05,0.0003274009288919171
755.3443961000634,0.0722196499222649,0.06991479289356002,0.002304857028704874
795.8434228778858,0.03509635165591073,0.018880060210638653,0.01621629144527208
814.0068806444872,0.05616483498804106,0.054502293700007254,0.0016625412880338104
849.1610180685051,0.015824448031692306,0.009188900106820204,0.006635547924872102
855.1018651602296,0.013209109248849151,0.008463071619808925,0.004746037629040226
862.5409165562859,0.01285666697371337,0.00033914810741061816,0.012517518866302752
905.0638266509477,0.00844515627982503,0.0035137307094137687,0.004931425570411262
912.6405774188909,0.009101155659584739,0.00029335918290947173,0.008807796476675267
925.0432291294871,0.008701219527172786,8.122594335718132e-07,0.008700407267739215
928.8479591497116,0.0019216113375063247,8.74220225996558e-05,0.0018341893149066688
931.803572182116,0.0043908935243746235,0.0004433304361738967,0.0039475630882007265
945.8813481799338,0.037438343611016604,0.011746200673922918,0.025692142937093685
968.2524420791042,0.01581214967554233,0.0040950434735174315,0.0117171062020249
972.0895706164301,0.012127549596603815,1.233515152815069e-05,0.012115214445075665
975.1618787268427,0.0042102261887074595,0.0005904773047361852,0.0036197488839712745
988.5507495591951,0.00944442341808061,0.0003177867154097446,0.009126636702670866
1001.3532191756728,0.01598998330956465,0.013896971221169755,0.002093012088394896
1023.1106456374367,0.0068047642861398545,0.0006317740264937029,0.0061729902596461515
1026.4188446815137,0.010934979545882764,0.001784281169683733,0.00915069837619903
1073.5115784028255,0.0040606380341319335,0.0014123135676933545,0.002648324466438579
1083.7452683152833,0.041690826750369205,0.0001620312919216374,0.041528795458447565
1095.7232332247986,0.017334467760039555,1.1982183971980048e-05,0.017322485576067574
1115.3553479577427,0.005963615561990244,0.0008890080047963357,0.005074607557193908
1123.7322435125957,0.012014916100913032,0.000530646016756029,0.011484270084157002
1132.0110186422562,0.007708217074217472,0.0016702840445582063,0.006037933029659266
1171.0501580635844,0.014812749032496266,0.0076127922765835175,0.0071999567559127495
1176.791955704101,0.0037964147715501863,0.0009654332671018337,0.0028309815044483527
1185.3949727252366,0.013061876777147536,0.0007659957186723131,0.012295881058475223
1198.0716022527702,0.01586635128098771,0.0026233395403431623,0.013243011740644548
1202.617725244409,0.013777430018188801,0.0007596991324691011,0.0130177308857197
1213.2533808812182,0.018590491198599454,0.0044299845057860325,0.014160506692813421
1226.0830659748262,0.015576240625802127,0.0021434153308856063,0.01343282529491652
1240.7288434073528,0.013642894638268715,1.0200776650943123e-05,0.013632693861617771
1251.8493945721284,0.007201352724087245,0.0004443720711947078,0.006756980652892538
1282.3203357378914,0.004363524847634483,1.1140167532588647e-05,0.004352384680101895
1294.6061479173443,0.02611851830283339,0.004155413282655898,0.021963105020177492
1308.2894685372203,0.00813002146650339,0.003339191786441585,0.0047908296800618045
1328.8247371796624,0.021234881388574205,0.00205699517224011,0.019177886216334095
1339.4574832104886,0.04818115757048248,0.001639252635761628,0.04654190493472086
1341.9907841786994,0.017188102468599822,0.00013765616114545088,0.01705044630745437
1356.8763514911986,0.007296108176664467,0.0008715642514286525,0.006424543925235815
1366.469407199055,0.013079608134529946,0.0007662094535275014,0.012313398681002445
1373.4829118657876,0.0434448709134364,0.00019738274547038352,0.04324748816796602
1378.2997051226907,0.0028921919388780063,0.0007323054767947764,0.00215988646208323
1382.7886805020787,0.0103622901207591,0.0001344489969857392,0.010227841123773361
1390.9259113217258,0.00858894968634847,1.8113198360526763e-05,0.008570836487987944
1396.3909844955351,0.004010632372705269,0.00014684113745371815,0.0038637912352515505
1400.0409167800283,0.013179733978713571,0.0013506181145812367,0.011829115864132335
1402.4803349033737,0.0026036823172789925,1.8386242000148215e-07,0.002603498454858991
1405.2030150131106,0.008498905980043481,0.00014969620550005683,0.008349209774543424
1406.5485140272633,0.01688976506200365,0.00025518555748578654,0.01663457950451786
1410.947943284739,0.004179574330192019,0.0003874979883666557,0.003792076341825363
1414.9530936317806,0.005847965931148608,0.0016763814484882264,0.004171584482660381
1418.2341075998927,0.003947329070958831,0.00034546280572093186,0.003601866265237899
1419.1830886895964,0.0035123871323710673,5.727856099350082e-06,0.0035066592762717174
1473.614698891853,0.023633304089140383,1.8567972403857966e-05,0.023614736116736524
1476.6428081426352,0.04398761132840018,2.685407141399187e-05,0.043960757256986185
1481.113099333417,0.030914798617129133,0.00158387492416405,0.029330923692965083
1483.0152667913621,0.037058470341800084,6.05022937010238e-06,0.037052420112429985
1483.6793578922434,0.036700460720107644,0.00017813374237135785,0.03652232697773629
1486.5872770646235,0.017639216031923283,5.8561690048187934e-06,0.017633359862918464
1491.0127992595433,0.012198031170132002,0.00010736780127536547,0.012090663368856636
1492.8000860794261,0.007667290785393284,7.660623720828622e-05,0.007590684548184998
1494.0940705597561,0.007351536926084516,0.0038184842762843414,0.0035330526498001747
1495.9080119704495,0.00864134199936744,9.684625516137516e-06,0.008631657373851302
1496.8584278511735,0.0012760280876729466,0.00019694096561458362,0.001079087122058363
1499.5609971393485,0.006112011380334077,3.133383751178821e-05,0.006080677542822289
1501.1379535021429,0.042266643942175296,0.00023897182181396867,0.04202767212036133
1503.905048421585,0.030503152756648597,0.0002811396952726728,0.030222013061375924
1506.9729943430514,0.00462784449954614,1.7233032883735024e-05,0.004610611466662405
1508.4867041996204,0.004195459675185488,2.4478543322355173e-05,0.004170981131863132
1511.0619529896023,0.02326703026640613,4.275250636744322e-05,0.023224277760038686
3024.711986662192,0.4150252107914101,0.29323621213582957,0.12178899865558054
3029.0131648823,0.027425653109210475,0.009205214041490481,0.018220439067719994
3030.1590405083225,0.4618463174768526,0.1954991753883754,0.2663471420884772
3035.941596774673,0.41729558784112275,0.24095682895946738,0.17633875888165537
3040.8450505194314,1.1908683422631121,1.006455479291217,0.1844128629718952
3042.3746278258136,0.31334915930611307,7.436806599880288e-05,0.31327479124011426
3043.4111997106274,0.0531556624142176,0.016255783702240574,0.03689987871197702
3044.5685191951206,0.25331528672163867,0.23957984271335006,0.013735444008288626
3045.888638448794,0.04759155259693794,0.008729071198245907,0.03886248139869203
3047.6586721728745,0.9836871154056465,0.9192126168404426,0.06447449856520382
3051.4026437375614,1.862526282575732,1.8211714287927918,0.041354853782940126
3052.170763183201,0.34558342211818927,0.3325069645075276,0.01307645761066166
3053.147317306763,0.19545727605737243,0.032875187027966185,0.16258208902940624
3056.126337316497,1.9202442804093192,1.8350367736268225,0.08520750678249672
3062.0712123614744,0.39777757416431514,0.16128371229771846,0.2364938618665967
3063.0084146773956,0.10778641043093738,0.0003532276085425836,0.1074331828223948
3072.837592566418,0.8217515903193314,0.6122497184334403,0.20950187188589112
3077.4581842971415,0.6114270301475834,0.35274592220150525,0.2586811079460781
3081.1416840020124,0.06267457749640618,0.0024502580925827794,0.0602243194038234
3088.7935156390345,0.39243686814448675,0.11532141936013766,0.27711544878434907
3089.183119823208,0.1605011169980094,0.07730965040040583,0.08319146659760356
3095.749145070642,0.08610886717962006,0.013770260143672995,0.07233860703594706
3104.6420358423807,0.09959185727523082,0.007937001948674367,0.09165485532655646
3107.0105167495153,0.10084340915657979,0.0030412211250367164,0.09780218803154307
3110.5569801437814,0.5819242160196914,0.15746024789496596,0.42446396812472537
3111.3470643221704,0.20972571887198152,0.030463832986169243,0.17926188588581227
3114.341258615934,0.3718756532905183,0.13402575888788176,0.23784989440263657
3116.4504170459545,0.19260710740260026,0.012686310895055269,0.179920796507545
3117.753240399029,0.3537016651431437,0.0040172039638536605,0.3496844611792901
3124.3010196225364,0.10090407457845728,0.0014634969084558174,0.09944057767000146
3124.568999089674,0.3229137164991531,0.014557749933585449,0.3083559665655677
3131.7912793914793,0.18038504845754352,0.025466211996993365,0.15491883646055016
