frequency_cm1,total_intensity,isotropic_intensity,anisotropic_intensity
0.538778599239476,0.0,0.0,0.0
2.148766918070512e-05,0.0,0.0,0.0
2.0634430416941762e-05,0.0,0.0,0.0
1.8996768836547923e-05,0.0,0.0,0.0
0.62712706702049,0.0,0.0,0.0
1.0669375240047343,0.0,0.0,0.0
8.39810974080678,0.0028332156634546315,2.2919908419240186e-05,0.0028102957550353914
10.002351396269818,0.0019946292269046543,9.444757058079783e-06,0.0019851844698465745
13.827562464140101,0.0007042353822921328,1.7087329088723026e-05,0.0006871480532034098
23.176120281037036,0.001642486728433156,4.7489956253167774e-05,0.0015949967721799884
26.089712830617767,0.000963854305454536,4.1679674672368644e-05,0.0009221746307821674
28.99163853516016,0.0029227808948903947,2.508567035983752e-05,0.002897695224530557
44.99838196138572,0.00027964210801877787,4.74729588968033e-10,0.0002796416332891889
60.57475631660528,0.0001418238288743323,4.253312018318496e-06,0.0001375705168560138
61.01549289723022,0.002173296613139249,5.8639108358833996e-05,0.0021146575047804148
75.69410549344987,0.0019179748574353072,3.937014452746581e-05,0.0018786047129078413
93.32291019752388,0.0032457606624748995,0.00019052755064909497,0.0030552331118258043
96.89395237542966,0.001428452052081314,4.595836398825631e-05,0.0013824936880930578
110.6573459636843,0.0012693108168787377,0.0004440449253788225,0.0008252658914999152
119.61717858229986,0.002518578400518831,0.0011834654012408642,0.0013351129992779666
132.57981320617762,0.005238700128023702,0.0036838287117531283,0.0015548714162705731
135.5510897676296,0.0005768874238690786,0.0001916123067507848,0.0003852751171182938
145.35533926631314,0.0034305373872280743,0.002410508300008165,0.0010200290872199095
151.2797672468985,0.0008867918020898809,0.00015254349022018394,0.0007342483118696969
160.74519810833982,0.0061102715859702944,0.003760525868266592,0.0023497457177037023
170.59591897676668,5.250810664021872e-05,2.972177066459659e-06,4.9535929573759065e-05
173.51465788770312,0.0006403129738363307,0.0004980642449169478,0.0001422487289193828
188.2479936538576,0.005178059397645884,0.0007203059282938242,0.00445775346935206
212.62833248783028,0.0017136973545034035,0.000148974347653892,0.0015647230068495115
246.29421618987183,2.128079768855142e-05,4.606045825236796e-07,2.082019310602774e-05
250.56323183325378,0.0015043682809817976,0.0006358064897548291,0.0008685617912269684
288.55961720534543,0.001590056474484647,0.00044580344382068185,0.001144253030663965
314.7336621782923,0.00022477814779474738,0.0001509219858576661,7.385616193708126e-05
331.6079113290705,0.0049850627911449345,0.003916731488766612,0.001068331302378322
379.36249417031337,0.0030387985956213323,0.0006791199505900073,0.0023596786450313253
399.1083904876231,0.005135799903596637,0.0025746347179368234,0.002561165185659813
410.4994206999086,0.0021544058263073002,0.0006821873417514767,0.0014722184845558234
431.93088006946454,0.0020184547340244955,0.00047445884275651527,0.0015439958912679803
462.74605713261207,0.0004518122993312426,2.8756228387500112e-05,0.00042305607094374247
495.0915979007496,0.0006063839014828808,4.342192581190504e-05,0.0005629619756709757
513.4452832389082,0.00024067003565785675,5.467594658700096e-05,0.0001859940890708558
544.5419711742811,0.0072069873252898495,0.0055557714393344535,0.001651215885955396
552.7095190820634,0.004173035993949772,0.00010970686063161554,0.004063329133318156
601.5537489086704,0.00917577838630978,0.00106869506340649,0.00810708332290329
626.2900492555699,0.01650673038579456,0.008651016308280121,0.007855714077514439
636.4799305396353,0.042879577971112,0.03369720821916117,0.009182369751950829
727.8608462659971,0.00010789368342429111,1.4182354182956171e-05,9.371132924133493e-05
728.7926117845569,8.854044350738098e-05,3.110644662317443e-05,5.743399688420656e-05
731.5354723809297,0.00019055105263811992,8.834342019852812e-07,0.00018966761843613463
737.9437448290173,0.0022987020747014444,0.0012844679785481543,0.0010142340961532901
741.3817352562787,0.010010911591999055,0.0064873227930708054,0.003523588798928249
754.1617327145441,0.0011063907493027835,0.0006435443193802817,0.0004628464299225017
779.2406871403989,0.0018104453100064285,0.000733422775099621,0.0010770225349068076
807.5833970779823,0.01340446867387668,0.008021588519331813,0.005382880154544867
824.1065043991806,0.011420152840423168,0.00814680783165786,0.003273345008765309
859.4078730649485,0.048490040931711456,0.033300089760895824,0.015189951170815633
864.6539204970654,0.0020137447900873025,0.0007290667394936063,0.0012846780505936964
899.5443471095296,0.005606369922351889,0.0037904332106044646,0.0018159367117474244
908.2924388959575,0.03339501490642112,0.02106530648359761,0.012329708422823514
909.4887424329801,0.005244688621838954,0.0013684134357029795,0.0038762751861359753
922.0976715337508,0.009564607506200511,0.006392690894990811,0.0031719166112096995
951.9730772507559,0.0011164399016635061,0.00023024360081451653,0.0008861963008489895
964.4501376872789,0.0014255854421131502,3.0321096470382034e-06,0.001422553332466112
997.2390042009857,0.0017240216865274285,0.0001536610084885712,0.0015703606780388573
1005.8791157885322,0.0016893093703167798,0.0006365505466525915,0.0010527588236641883
1011.1825784508317,0.006842709511120607,0.0017624456857494688,0.005080263825371138
1016.9250911312856,0.0029609107621886913,0.0013300978915821984,0.0016308128706064926
1027.2226408077,0.0024941765229929296,0.00048158508459846097,0.0020125914383944685
1031.0004106650365,0.006678804419730729,0.00015027694820042627,0.006528527471530303
1049.3928617625247,0.0008186512484514774,6.82654507198509e-05,0.0007503857977316265
1052.1111995096605,0.0029701555925401866,0.0011120527311785598,0.0018581028613616265
1061.1044196890766,0.011554920482400786,0.003953459760539904,0.007601460721860883
1073.5623451321196,0.010492222482806965,0.0011055934245611612,0.009386629058245805
1075.6269934167985,0.0018639092260992834,0.0011192478829194863,0.000744661343179797
1086.2148306548922,0.0029228062724794826,3.507607216458582e-05,0.002887730200314897
1088.8225372626935,0.10593823341805778,1.8034673701138252e-05,0.10592019874435664
1091.7788134497102,0.00013294376540052763,7.728846704508061e-05,5.5655298355447005e-05
1092.154299286337,0.001758904403163328,0.00016471341780495614,0.0015941909853583718
1102.5938197737682,0.01209962649386051,0.006478632530924295,0.0056209939629362155
1103.9786923916338,0.010907797914090097,0.005166737466630406,0.005741060447459691
1117.8581302539342,0.046570257347688396,0.016084594434169673,0.030485662913518723
1118.5324167155422,0.05747068467474631,0.022275042583748593,0.035195642090997716
1144.7341153573252,0.018514639899369387,0.00032952363691308555,0.0181851162624563
1156.3019925672825,0.25079001981837584,0.1438835112410034,0.10690650857737244
1196.3135596190252,0.013316841075133947,0.0005283701978083404,0.012788470877325606
1206.720196157138,0.01817164329508273,3.266239366690418e-06,0.01816837705571604
1219.0357720361444,0.002689783727219954,0.001257546261697346,0.001432237465522608
1225.896473290265,0.006983363153701362,0.00019251543756429234,0.00679084771613707
1240.7951042833959,0.0009950994215268054,5.404461063083305e-06,0.0009896949604637222
1247.1180208059056,0.0009349154602640622,5.107702064171494e-05,0.0008838384396223473
1254.353627857199,0.0010819338254159667,8.848430743780502e-05,0.0009934495179781616
1257.1493620471988,0.025702409535685176,0.007286209369818625,0.01841620016586655
1270.4748868079928,0.008986794866203376,0.0013463704584824549,0.00764042440772092
1271.8600004302002,0.010396240635198162,0.003106303055353566,0.007289937579844596
1278.3195694223332,0.01998917073350673,0.004365634650097559,0.015623536083409172
1295.8785625483847,0.0025914513686244897,0.0004451658866496877,0.002146285481974802
1300.0880129893326,0.014064601605203913,0.0032645722286107747,0.010800029376593138
1310.0284814412996,0.009252692637552426,0.00016253374376620162,0.009090158893786225
1315.630913669124,0.04014170830554006,0.005932257746100822,0.03420945055943923
1322.8905666865269,0.037127225526807195,0.0021029369466768876,0.035024288580130306
1324.8051858746358,0.12538074389052511,0.000216408639208626,0.12516433525131648
1326.0194180568174,0.015532022954981514,0.004988641800815468,0.010543381154166045
1331.2551671517333,0.003420722373773857,0.001661698443574597,0.00175902393019926
1333.4711484102133,0.01827010701384304,0.0028775980582460507,0.015392508955596986
1336.5059860822805,0.010144670978094593,0.006873175766106277,0.0032714952119883155
1337.913065600934,0.00442929626952991,0.0019187987560202926,0.0025104975135096168
1338.4646356638038,0.011076468088055593,0.004883284924623415,0.006193183163432177
1340.1443743220386,0.020894491011639354,0.0072714820843481675,0.013623008927291187
1351.3660492619872,0.01893524135436119,0.010991359487849895,0.007943881866511295
1357.196237219441,0.004071929212855515,0.00031159567605607463,0.0037603335367994402
1375.6145507237384,0.020814967805394186,0.0065182947172196795,0.014296673088174505
1389.133837480435,0.010399493694084194,0.0015782947144159928,0.008821198979668201
1399.9074454868523,0.012581441269451283,0.0005983063793393373,0.011983134890111945
1409.8970228281878,0.005272455535138599,0.0009490991264165497,0.00432335640872205
1412.948062676436,0.0032671223547806136,0.0017866080302748383,0.0014805143245057756
1417.7168888569997,0.006458803684944435,0.00014962280886254118,0.006309180876081894
1420.4140312633922,0.006548646963552541,7.982768565773699e-05,0.006468819277894803
1421.0329260267936,0.0014924623753370904,7.313467579141423e-06,0.001485148907757949
1455.2207410275737,0.017829435530796637,0.004556603854114432,0.013272831676682206
1476.8575384385274,0.04383575932619127,0.007622377648643447,0.036213381677547826
1480.2623487672004,0.006835784432452894,0.0005240318234992799,0.0063117526089536136
1480.5176903786657,0.007268594351606876,0.0009024688893258248,0.006366125462281051
1482.366899332614,0.00439914564092175,0.0019590247553305192,0.0024401208855912306
1482.938850624784,0.01301517778659549,0.0027120483493892123,0.010303129437206278
1484.7144875450222,0.2340006670061735,0.018971350746807596,0.21502931625936592
1485.9038918741635,0.020007725305022157,0.0011336501936718437,0.018874075111350315
1486.1394663806036,0.031426477890530324,0.0037955702799395102,0.027630907610590814
1488.9690720751105,0.008916920007933997,0.00032523937668525206,0.008591680631248745
1492.9492096373385,0.0066314610031670065,4.000932575563131e-05,0.006591451677411375
1493.7703860667198,0.02705041959201815,4.2514714986930255e-07,0.02704999444486828
1497.2378984826732,0.0006957454886813788,1.981286833656148e-06,0.0006937642018477226
1501.1760803129357,0.002973780056249973,6.825538282772467e-10,0.002973779373696145
1504.376486323415,0.0006705369415851531,7.249318212809044e-05,0.0005980437594570626
1506.2924813889304,0.0015367679811270722,1.3865657939040476e-05,0.0015229023231880317
1773.4505601385615,0.44373696496623205,0.24940800443024275,0.1943289605359893
1879.1979467365231,0.06254228335920657,4.9200919419056985e-05,0.06249308243978752
1947.893751458243,0.14480494936928112,0.0991621293641578,0.04564282000512332
3021.502170707212,0.025279605710928424,0.022549446779232762,0.00273015893169566
3021.7253111489586,0.00455769418409229,0.004207506976304198,0.0003501872077880921
3023.064576216911,0.059331598719358856,0.048437168191211126,0.010894430528147729
3023.7957302853524,0.10827232177261467,0.10439129959266485,0.0038810221799498125
3024.8794834291866,2.4780622266523036,2.426007020445583,0.05205520620672064
3026.184405853913,1.162642117783305,1.153611649060841,0.009030468722463983
3028.3029059290284,1.052729359471877,1.0243273207079984,0.02840203876387864
3031.5418633376717,0.09431927267071948,0.08408620786021793,0.010233064810501536
3034.8135546598,0.47918733375401373,0.4368069622456839,0.04238037150832984
3037.804037547118,0.04392232589341368,0.0026236440758403336,0.041298681817573346
3040.85304265178,0.6034090918779639,0.5317920056571401,0.07161708622082377
3041.501358141497,0.12258772089223963,0.006474554048947331,0.1161131668432923
3043.074407500994,1.3970295056670587,3.521753402405427e-05,1.3969942881330346
3044.3850979440663,0.009967915166519865,0.0001946576799989605,0.009773257486520904
3046.8778990914857,0.35130074884407075,0.0003174559311578571,0.3509832929129129
3049.6012872584824,0.9141107922010292,0.9067355588885396,0.00737523331248955
3050.7514748592944,0.01151417034045756,0.0009276431430994703,0.01058652719735809
3055.6076839243105,0.15573242365555118,0.00044884153489127765,0.1552835821206599
3061.2787394896304,0.0662974369528116,0.06211708421926359,0.004180352733547999
3061.6126192699826,0.4057368733719808,0.37452510666780703,0.031211766704173746
3067.5711749526686,0.1272638148391953,0.002122178569002228,0.12514163627019306
3073.8022432354796,0.006444218887300879,0.002320564280483767,0.004123654606817112
3079.4800604270044,0.09893185556947084,0.003470241008327483,0.09546161456114337
3084.705234807446,0.006316666366700965,0.004805665594983418,0.001511000771717547
3088.8623273920107,0.03233891835637654,0.0028794272823108053,0.029459491074065737
3090.876323595159,0.25502868339977963,0.055547274442809026,0.1994814089569706
3093.297892118525,0.05606795153135427,0.01693060429365152,0.03913734723770275
3107.702600540498,0.5806273144189286,0.5035107054481327,0.07711660897079586
3110.4483872153774,0.1512107981610785,0.00013117501188773993,0.15107962314919074
3112.5732755696513,0.1282120378665102,7.616486848685313e-09,0.12821203025002334
3120.653394477071,0.4097834422532648,0.0625984803023405,0.3471849619509243
3125.0967615698846,0.4080130160578349,0.28187865779494636,0.12613435826288857
3144.7465027587814,0.1932059713441932,0.1195057744861663,0.07370019685802691
3160.5253694982966,0.23585193419920883,0.082311129095543,0.15354080510366583
