frequency_cm1,total_intensity,isotropic_intensity,anisotropic_intensity
2.722903891150219,0.0,0.0,0.0
1.7825048474101026,0.0,0.0,0.0
1.6929773509629191,0.0,0.0,0.0
1.3368935346112257e-05,0.0,0.0,0.0
1.8815361984092286e-05,0.0,0.0,0.0
1.898432593739017e-05,0.0,0.0,0.0
27.70787535542565,0.00035936710438002614,2.956471925516769e-08,0.000359337539660771
41.70235047255915,0.0015389669455294155,6.966210871554015e-05,0.0014693048368138754
65.04960400260232,0.014498315299064275,2.655265676805142e-06,0.014495660033387469
71.62500168571061,0.0009012535761591549,2.1206976461486983e-06,0.0008991328785130061
88.40675818053379,0.003402247540092452,0.0001519503614393686,0.0032502971786530833
136.58525688029917,0.006729310580493338,1.0455470010317227e-05,0.0067188551104830204
148.79660219711732,0.0011711969178935062,9.64780586884908e-05,0.0010747188592050154
200.08086130993857,0.004947284173110784,0.002944248022395402,0.0020030361507153817
213.99100198747692,0.005855182951432679,0.003798388988698911,0.0020567939627337676
237.56954576147058,0.004593379984613554,0.0032609594750436783,0.0013324205095698756
240.45459690963364,0.0029921718528669976,0.00024658184247998015,0.002745590010387017
246.82747001900992,0.00029695823593919456,1.4081248873309943e-05,0.0002828769870658846
263.87265029098404,0.012084406699737444,0.009018183514753971,0.0030662231849834737
286.7012987205772,0.002916885104078432,0.0026516616537733944,0.00026522345030503776
301.44723606571847,0.001760445526632196,8.673331105349986e-05,0.0016737122155786961
313.6220541133132,0.0054014688422964864,0.00373265698657742,0.0016688118557190662
331.9860915805356,0.0009472160660789006,2.2791189864324813e-05,0.0009244248762145758
339.9452633998637,0.0008993062877134448,0.00048287512430208,0.0004164311634113648
348.2998048702788,0.001360779892872764,0.0007591444588107795,0.0006016354340619845
368.96273747195875,0.004719656829282994,0.0020485057076857927,0.0026711511215972007
386.5593273478343,0.0036853393613163915,0.0010046634644279187,0.0026806758968884728
401.685292371325,0.0023319070982508044,0.0004496757195622781,0.0018822313786885263
424.7843286984634,0.0037982558464906635,0.0016107689740731397,0.002187486872417524
428.547754464102,0.0031105558599248836,0.0009490373970904015,0.002161518462834482
447.248876823174,0.003278064155575212,0.00022561237122324532,0.0030524517843519665
478.8377059872763,0.0039822862054982935,2.146036483031098e-06,0.003980140169015263
505.547202521685,0.004320850148718077,0.0019633173432669765,0.0023575328054511
541.6188127957661,0.02572160532069096,0.021229680912858855,0.004491924407832106
599.4850547446615,0.0008970410274793103,9.275376470140719e-05,0.000804287262777903
645.3369940426237,0.0012114585548731794,0.0002142840193488862,0.0009971745355242933
658.784806019836,0.017314218478705307,1.2809684040509203e-05,0.017301408794664797
748.5359209818104,0.19508668780899116,0.1940201232106951,0.0010665645982960669
774.911510783311,0.0021486214328836394,0.00017707031989830455,0.001971551112985335
783.9680393343655,0.001726976072410095,0.00019584232700750847,0.0015311337454025865
792.3605785469484,0.0011735358105156213,0.00033286131738727146,0.0008406744931283498
833.2308548631421,0.011518054195489605,0.0002982353544110125,0.011219818841078593
854.8236743431322,0.021927743771328664,0.0015767811736096744,0.02035096259771899
867.9384978158927,0.0017140592126750219,3.938000247234984e-06,0.001710121212427787
872.2866468955968,0.012468431338477574,4.052713029358386e-05,0.012427904208183991
935.3891555111264,0.021330112165900934,4.7082284541670556e-07,0.021329641343055518
942.2070593603921,0.025013268084391034,3.573302054506182e-06,0.025009694782336528
955.3418048545071,0.009682652089322065,0.00020262314938549852,0.009480028939936568
955.7444352608243,0.013823790707262144,0.0010174826406169552,0.012806308066645188
992.6891366094962,0.0003041629316903005,0.0002179998163230441,8.616311536725638e-05
1000.7243235054652,0.0024868452932572016,3.660966169740433e-05,0.0024502356315597973
1009.4554238894794,0.002281452825128419,0.0008111784452649763,0.0014702743798634425
1011.7227484211534,0.00023038223193624504,9.263769523846035e-10,0.00023038130555929265
1024.3208487869185,0.014098910898663794,0.0003162038603870036,0.01378270703827679
1037.811267623409,0.023897212053482657,0.003562668150769872,0.020334543902712787
1043.1993109991004,0.004260195760378432,0.0002695362670276736,0.003990659493350758
1061.6772794523415,0.010971327150820795,0.0007898627395730297,0.010181464411247764
1073.02343830409,0.004199832575447404,2.1056324601320954e-05,0.004178776250846083
1083.723569075998,0.013577641295358317,0.002466878803889478,0.01111076249146884
1088.1698983582155,0.028810331056504043,0.022017392242614717,0.006792938813889326
1129.234180429052,0.19880846507825642,0.14959096622968143,0.049217498848574986
1156.6225133589746,0.003033686857856064,0.0006114398065374669,0.002422247051318597
1157.9844614149645,0.01869565953060741,0.012948338309895113,0.005747321220712295
1205.2984901879295,0.03898755643771956,0.005819877338355625,0.03316767909936394
1218.4025997934366,0.018526542260551743,0.00018636058507345453,0.01834018167547829
1230.23191123396,0.01977329945442565,0.001736859182609817,0.018036440271815835
1237.4902880767477,0.024480980403859022,0.0012828169389863578,0.023198163464872665
1242.496271117011,0.034901849064223986,0.0030437766836333567,0.03185807238059063
1269.8072184813468,0.01179175021196513,0.007599240469354205,0.004192509742610925
1292.630318880202,0.01970271907048745,0.006753454279200703,0.012949264791286745
1312.303024279356,0.04513523848241803,0.031514277470886004,0.013620961011532024
1334.244737708038,0.02340474732959251,0.00882523761345616,0.014579509716136347
1341.3476785039747,0.017155566668079734,0.009405005871238593,0.007750560796841143
1348.8535102100493,0.015258057622833747,4.590158437645593e-06,0.015253467464396101
1368.5238117902638,0.007186815524279035,0.0005508572643884521,0.006635958259890583
1371.328189017285,0.00395362308321256,0.0011864603690199984,0.002767162714192561
1395.345177341873,0.002910058859810023,0.0009181496239536578,0.0019919092358563653
1399.799771065346,0.003770311314952623,1.61376908460671e-06,0.0037686975458680163
1409.1795900236993,0.0016688461835188324,0.00035857755804493487,0.0013102686254738976
1413.0021358599868,0.0037230810626079627,5.5430954906319195e-05,0.0036676501077016433
1418.4158944230007,0.0017943600067705054,0.0008165888823088445,0.000977771124461661
1418.8997196046396,0.0006484841505217606,1.7547360179013334e-05,0.0006309367903427472
1451.4193587308152,0.0038427664755866084,0.0010127969262834584,0.00282996954930315
1477.0129400748992,0.047138280092858066,0.0008481547701496084,0.04629012532270846
1477.9387289823376,0.006050485355380055,0.0005377050738163269,0.005512780281563728
1483.2986818902825,0.004058714893476541,0.0005151669887461015,0.0035435479047304396
1484.639774726552,0.05830913120769436,0.00014080510917537033,0.05816832609851899
1485.6921400555345,0.039432925024098356,0.00044306987110211474,0.038989855152996244
1490.8457155354631,0.03941804967861036,0.0013639847945802485,0.03805406488403011
1495.1560503115343,0.021676968812991262,0.005624499767793331,0.016052469045197932
1499.0596962830518,0.03612081115397981,0.0005532325955338497,0.03556757855844596
1502.8027455490446,0.017381719510883416,0.0010669595613922015,0.016314759949491213
1504.0350917957473,0.012219016756716744,0.004222727797439639,0.007996288959277105
1505.8414845399373,0.016503363073500275,0.0019189983857291187,0.014584364687771155
1509.906836612007,0.017599732334776894,0.00686914558642866,0.010730586748348234
1511.9591785451441,0.017970421745814244,0.009581208204678582,0.008389213541135664
1518.528357655546,0.011166417889337473,0.004467127426511859,0.006699290462825615
1568.1909890120742,0.0025175918012317645,0.000362444053099633,0.0021551477481321314
1643.83804590814,0.011720445490658692,2.8177240138600097e-05,0.011692268250520091
1695.5504246453638,0.19084319905077707,0.039994951784935256,0.1508482472658418
3045.903166451054,0.3430627734803985,0.1959852664976545,0.14707750698274402
3050.112741120931,0.2285478425807675,0.18234872814459074,0.04619911443617675
3054.596330167111,0.38922878747092743,0.34094111488944656,0.04828767258148088
3059.5820785941605,0.07813941743608246,0.07590642309283634,0.0022329943432461293
3060.218057844657,0.7101786647548949,0.588721127833605,0.1214575369212899
3061.0748107712466,0.030941954530730748,0.002262810364822985,0.028679144165907763
3063.9918723478895,1.669846875835404,1.5608841376173128,0.10896273821809122
3066.020652000095,2.6127664076231456,2.5752949615868053,0.0374714460363404
3082.7853690326874,0.238277230786292,0.007086282561278837,0.23119094822501318
3086.6943414930397,0.20700328991719188,0.007712454020277208,0.19929083589691468
3118.5930289051735,0.04197563036425056,3.402832925512584e-05,0.04194160203499543
3123.2189424906687,0.6994325584068324,0.002463784740024171,0.6969687736668082
3123.9740475945086,0.2958053213762124,0.056869982598176064,0.23893533877803635
3126.0354915337834,0.06993793090699066,0.0005679919995049931,0.06936993890748566
3126.663548905606,0.30362912876118653,0.039029967501000726,0.2645991612601858
3126.8326209588085,0.1327887507585777,0.008478354819774353,0.12431039593880334
3131.151864603382,0.07916100911949295,0.007486707352305772,0.07167430176718717
3132.196458051066,0.20326137792593424,0.0015942864757692839,0.20166709145016495
3133.131388391297,0.1037212588734797,0.003716545907258584,0.10000471296622111
3134.8484642583358,0.3867190410786831,0.018926373891083214,0.3677926671875999
3138.489051439398,0.5238944649245835,0.04760117294650744,0.47629329197807607
3140.9465791987654,0.2313196146600311,0.0013305112471465488,0.22998910341288453
3188.73097120476,0.1045601096169192,0.0008933307524667505,0.10366677886445244
3207.015469182383,0.4833153659734893,0.3592521994719794,0.12406316650150989
3213.4418617438787,0.14691693916708085,0.0009018076726746002,0.14601513149440626
3229.8285881996594,0.5208948413201535,0.382271356649185,0.1386234846709685
