frequency_cm1,total_intensity,isotropic_intensity,anisotropic_intensity
0.989623842838105,0.0,0.0,0.0
1.810871623474447e-05,0.0,0.0,0.0
4.052859423884459e-06,0.0,0.0,0.0
2.6343721663415985e-05,0.0,0.0,0.0
0.5255423883792733,0.0,0.0,0.0
0.7698213704266563,0.0,0.0,0.0
6.266923377263533,0.0040002686562717465,8.33982564818691e-06,0.00399192883062356
21.481383876477707,0.00010832410508371544,2.817776765028159e-07,0.00010804232740721262
23.6305307720959,0.0020570340274242475,4.647531943027329e-07,0.0020565692742299446
25.448647896361933,0.002166015388107324,7.188600773925874e-06,0.002158826787333398
31.308043143092767,0.0002612850291170156,2.1914636651831596e-05,0.00023937039246518398
36.162787544371156,0.0004913034983921053,1.3743286977316468e-05,0.0004775602114147888
37.94162412724839,0.00013520897839970638,4.894450820207898e-07,0.00013471953331768558
62.346568601487775,0.00010408977210582756,1.0708725936069998e-05,9.338104616975756e-05
74.20067445949148,0.00017975866793817037,2.1265064335000476e-05,0.0001584936036031699
75.91762912410177,0.00016365310513845137,0.00012617913708232005,3.7473968056131335e-05
83.17352596608904,0.0003749695225657403,7.61429901264177e-05,0.0002988265324393226
94.90544771312484,0.00020370335759403998,2.4827438280093873e-05,0.0001788759193139461
99.30594173048345,0.00038408603370162375,4.758211933492069e-05,0.00033650391436670305
113.34432611876167,0.00017556288376765849,0.00010119822895574274,7.436465481191574e-05
124.4278205213183,4.571424865747768e-05,7.576252650040838e-06,3.813799600743684e-05
128.02948170479908,0.002090482846137743,0.0015176199812058737,0.0005728628649318693
131.13980935280642,0.0003938725212181348,0.0002297070224996098,0.00016416549871852505
151.95912349426425,0.003933969986581988,0.0026968825712453187,0.0012370874153366691
160.56880528913038,0.0017514081841053285,0.001572531729609148,0.0001788764544961806
163.44963837538253,3.3564439300078335e-05,2.0190890529585184e-07,3.336253039478248e-05
166.34774151469023,0.002198571896968266,0.0001096288845745158,0.0020889430123937503
166.96564901553572,0.00020146643634910932,2.8221948149350184e-05,0.00017324448819975915
178.45316801892028,0.0011344138141112568,0.0010129268055950687,0.00012148700851618809
186.44778110325126,0.016297899797566802,0.010444539533752283,0.005853360263814519
194.5345954574032,9.167256774830865e-05,7.166763262682094e-05,2.0004935121487714e-05
210.57519507346336,0.007567925328488311,0.005039890824355387,0.0025280345041329235
242.73829340465488,0.00617134461748079,0.0005101494874047161,0.005661195130076074
245.85125488769924,2.11515989877452e-05,9.354573286729295e-09,2.1142244414458472e-05
246.187839418637,2.1731058924436588e-05,5.625302328041027e-09,2.1725433622108546e-05
265.59520108360596,0.0035244354048407046,0.002826561176156028,0.0006978742286846764
279.59865948719374,0.001470981327949476,0.00018414075317480508,0.001286840574774671
341.3175253877655,0.0016561973915718555,0.0008765326827101519,0.0007796647088617036
345.53238739187896,0.00038498434275576415,2.143159643442868e-05,0.00036355274632133547
372.21984884381055,0.0004294909653330058,5.918485245663331e-05,0.00037030611287637246
397.23479222814996,0.00010261757711734549,5.9325443646121656e-05,4.329213347122383e-05
432.62609287347004,0.0006710375592970524,0.000458242020207691,0.0002127955390893614
457.1265699085755,0.0016728673799207732,0.00034605077361554026,0.001326816606305233
474.60141756121834,0.002853856317875156,0.0022380793441781526,0.0006157769736970034
494.4335298368249,0.003782100610425342,0.003359799349384755,0.00042230126104058664
500.53559633865467,0.001008644634661725,3.4988409525928256e-05,0.0009736562251357968
523.3955939753432,0.0008897178998096219,0.00047892162910355033,0.00041079627070607166
610.2114961071176,0.006575887991996518,0.0005828696538978487,0.005993018338098669
728.2500970570875,0.00010928005182934287,6.572752259069834e-05,4.355252923864453e-05
728.271771190606,7.86533957196709e-05,2.67542173729877e-07,7.838585354594103e-05
730.2769475982615,0.0011491176398905388,0.0002249855131311304,0.0009241321267594086
730.8862710888031,0.0002135338056565664,1.354431099468425e-05,0.00019998949466188215
737.0769045648069,0.0006589196051895911,0.00011074943179130127,0.0005481701733982899
739.724754158077,0.00026793332437429775,1.8528893615926617e-05,0.00024940443075837114
756.4452893275575,0.0015937989683997705,0.00017102764248005215,0.0014227713259197183
762.2380648597001,0.000828421186597836,1.6762300234383147e-06,0.0008267449565743977
793.6415665735466,0.0015119862599361875,0.0007017596695814569,0.0008102265903547306
802.0778160316914,0.0003214863489771642,3.6227733614604344e-05,0.00028525861536255983
841.2223965598814,0.0133837282905883,0.009847511988779534,0.0035362163018087655
855.9325401094324,0.004814150392750002,0.0015652436786811371,0.0032489067140688654
867.9654640485131,0.017228582260606293,0.01479523855500003,0.00243334370560626
908.2428181645417,0.04366061341841473,0.04051897000771753,0.0031416434106971993
908.2602778134468,0.022260964467175206,7.053849296217298e-06,0.02225391061787899
915.9112367519591,0.0021496751207273606,0.0004376294933801553,0.0017120456273472054
924.544693576657,0.0013872171590232378,0.0010231805864238817,0.0003640365725993561
977.1300181725147,0.004525094591445129,4.098912102036197e-05,0.004484105470424767
982.9119445229128,0.0030380664128419714,0.0010246355160493398,0.0020134308967926316
1008.300092855513,0.00040776499323303637,2.680174878106096e-07,0.00040749697574522575
1012.955115516305,0.004090857734260301,0.0026818302479048165,0.0014090274863554843
1023.2747877486108,0.003105856645494483,0.0007740017415168077,0.0023318549039776757
1025.870675121366,0.0007709388065303992,2.5542115839848554e-05,0.0007453966906905506
1028.3099284646707,0.005502794885570691,0.00014896474879001092,0.00535383013678068
1035.259240371734,0.008171219321749103,0.0028586046995328113,0.005312614622216293
1046.7122866688217,0.0039048512472438465,0.000380757498215313,0.0035240937490285335
1047.530698093468,0.0026117902400028155,0.000646917450018999,0.0019648727899838165
1060.2261100189567,0.011102790983883394,0.001065419033681042,0.010037371950202352
1064.3492125383789,0.0017480619683198635,9.080971930443084e-05,0.0016572522490154327
1072.7273430900475,0.007402765768155855,0.003449659211147554,0.003953106557008301
1079.8337524396713,0.012255161008474343,0.000585779337974659,0.011669381670499685
1082.7776063667454,0.04435541923683369,0.009608997247200457,0.034746421989633236
1087.2307545912788,0.03626944857644622,0.008111375041972992,0.02815807353447323
1090.1607003120475,0.05231149387313598,5.9283784942446544e-06,0.052305565494641736
1090.2564202211356,0.05501280945189288,1.342557212102843e-05,0.05499938387977185
1091.5964795362827,0.00028754771514556194,4.37510706814421e-05,0.00024379664446411986
1093.0813524395642,0.012472121315797323,0.0033808902042293185,0.009091231111568005
1095.7688530851458,0.04011767227497769,0.021477642549901026,0.018640029725076668
1108.6763701524283,0.017692300990344925,5.791465702362809e-05,0.017634386333321296
1136.1470181109694,0.0223276324497008,0.014418370812300803,0.007909261637399998
1151.3498366233619,0.10368720019726,0.0008580407595572628,0.10282915943770272
1160.877916631746,0.19042766924315235,0.18124895849688838,0.00917871074626396
1183.5927159599894,0.018155783212566484,0.0017442703607143107,0.016411512851852172
1207.5545278703316,0.010428008367232934,0.001053574701303,0.009374433665929934
1210.892340439931,0.005696689159310493,0.0002451701665970198,0.005451518992713474
1215.4180253288087,0.017399992026996304,0.0008109833356335873,0.016589008691362716
1228.2911892960865,0.004383244116548864,0.0018914041120889644,0.0024918400044598994
1236.4162685129434,0.002210468034090894,0.00041788253711250764,0.0017925854969783861
1244.4578401729204,0.0007157287566380208,0.00012713677191216404,0.0005885919847258568
1249.2893939251364,0.005163391579412452,0.0006931337912673669,0.004470257788145085
1264.4681297815414,0.00123614434762009,0.00044669874797765034,0.0007894455996424397
1269.2162678838129,0.002302772318349567,0.0007087776977356817,0.0015939946206138852
1278.902456652375,0.0032738869263087625,0.00037472658416344513,0.0028991603421453173
1280.386355894147,0.008562174771663517,0.0003984348748104675,0.00816373989685305
1297.9144107862928,0.0010323276078356557,0.0006659117200785981,0.0003664158877570575
1301.8040948280877,0.003369469685200245,0.00035996254812385356,0.0030095071370763913
1306.827094497906,0.0044069979792038805,0.00035533996870799585,0.004051658010495885
1309.6981354115314,0.003695360058272613,0.0009502859648134795,0.0027450740934591334
1320.9533190822617,0.015748443788562463,0.0002330675203868258,0.015515376268175635
1324.8340107551778,0.10225429574881852,0.0007772193326296803,0.10147707641618883
1326.9505686018726,0.02371698601978552,4.01951872447987e-06,0.02371296650106104
1327.6161626813903,0.1169291520771429,1.523786493843948e-06,0.11692762829064905
1331.6319481110752,0.0017985328723272309,0.00037165668459591283,0.001426876187731318
1334.6768872122534,0.0033588465150093854,0.0004597159656442766,0.0028991305493651087
1335.42032534899,0.0017103791410318975,3.426820549775567e-05,0.0016761109355341419
1335.8708748832316,0.001437548483637212,2.5171081400565385e-07,0.0014372967728232063
1336.8546694596075,0.0011052519449078475,3.4791890532775166e-05,0.0010704600543750724
1338.7584490968063,0.004372517185887693,0.00013396922480711295,0.004238547961080579
1341.3015187589199,0.007104908897023214,0.001911243197454578,0.005193665699568636
1341.465299127335,0.02766039779723972,0.00017032404451649606,0.02749007375272322
1365.7665639142322,0.006410550446328572,0.00010660279737413565,0.006303947648954437
1373.3740382336678,0.001651071118740573,0.0003630768636099731,0.0012879942551305998
1385.9404096086234,0.00809482604861965,0.0005710417326820964,0.0075237843159375525
1398.4500577496929,0.0011516139792467311,0.0008120185080219985,0.0003395954712247327
1402.1779113664843,0.004425154010739691,2.775588341300517e-05,0.004397398127326686
1411.4017946407757,0.003334832602869568,1.000035227681598e-05,0.003324832250592752
1412.1864502013173,0.0008017570207440672,0.0005149197038437438,0.00028683731690032344
1413.1949837352254,0.005408154237022396,0.0015078521657393674,0.003900302071283028
1414.872071904896,0.005762771170606213,0.00015523832279272946,0.005607532847813484
1418.8361427863558,0.00210119896997228,6.980962336323609e-06,0.0020942180076359562
1420.5550368938382,0.002552684370614787,0.0002792117552993209,0.002273472615315466
1420.8699858485145,0.008439125600466151,5.2839979000751615e-05,0.0083862856214654
1420.993773315551,0.007776722659039816,4.777634482419308e-05,0.007728946314215623
1427.406755403043,0.00850597080348937,0.0007904734602002207,0.00771549734328915
1478.722097949303,0.025203169904694258,0.0007773802592098501,0.02442578964548441
1479.7905165334896,0.001545128935515252,5.554570338457257e-06,0.0015395743651767948
1480.728839117193,0.0005882416256860692,8.922879847949649e-05,0.0004990128272065727
1480.9040152454743,0.00044901432864354664,3.968220424866209e-05,0.0004093321243948846
1481.7331113490602,0.005794782873936809,0.0010174301913723793,0.00477735268256443
1482.7402359049322,0.006829268531414791,4.458308949709238e-05,0.006784685441917699
1483.8374873403454,0.06126784513468789,0.0022552834815455524,0.05901256165314234
1484.286280914266,0.13745206738142518,0.01145854150450566,0.12599352587691953
1484.866802706435,0.1580649761077707,0.00905138543903929,0.1490135906687314
1486.7713941534032,0.01882462033663752,0.00023017360422504762,0.01859444673241247
1488.6721369032925,0.04470566436799385,0.0017261575970210507,0.0429795067709728
1490.1942200384115,0.0012059368363425763,0.00011733335708949199,0.0010886034792530843
1492.6623003420057,0.00542033719016141,2.5080422913041125e-05,0.005395256767248369
1493.7536966254243,0.026533957429346992,2.3427545809882626e-07,0.026533723153888893
1493.7655229996587,0.02755368824953596,6.450849135517565e-08,0.027553623741044607
1494.7201659688794,0.00916203552036685,4.090663551335232e-05,0.009121128884853497
1497.7671167876736,0.0005494791077883121,4.148908501036473e-07,0.0005490642169382084
1500.0640497221868,0.0019226827353700968,3.002052457880168e-06,0.0019196806829122166
1502.6677636257289,0.0026739052706010427,2.7044458713450634e-06,0.0026712008247296976
1504.423746640379,0.0019459967325244026,0.000221294109533716,0.0017247026229906866
1506.0343968835236,0.0011482214158826333,1.3059527599132356e-05,0.001135161888283501
1506.4513489724711,0.0010514740975554398,5.872578510744597e-06,0.0010456015190446952
3021.779205238788,0.009489161969582797,0.002631264483105956,0.006857897486476841
3021.9611043109585,0.07217662004731129,0.0638727280251894,0.008303892022121893
3022.38376315192,0.06128459679970983,0.054372378121841584,0.006912218677868247
3022.597050339832,0.001340203108850071,0.0004282026486588254,0.0009120004601912455
3023.9619436663957,0.3114856312186203,0.27894728641670496,0.03253834480191531
3024.29246031381,1.897041776576655,1.8808920603398296,0.016149716236825304
3025.332437249934,1.5474501879826865,1.5415133626810553,0.005936825301631162
3025.877071830133,0.4699106805486932,0.33298218598486234,0.13692849456383088
3026.5660273272774,0.10750689108697113,0.08316985306912329,0.02433703801784784
3027.871943461571,2.3679450810339797,2.3133821846684044,0.05456289636557546
3030.545086729922,0.2779789152117244,0.25736932244710736,0.020609592764617032
3032.872761127881,0.09841470374841184,0.08885209148991247,0.009562612258499373
3035.1188316539856,0.26342445817928556,0.21652940724905143,0.046895050930234126
3037.9637088338427,0.16799505484455007,0.1623044562980914,0.005690598546458682
3039.6113728460523,0.028330335651609986,0.006822504055247963,0.021507831596362024
3041.2557399492403,0.6392848502194854,0.6250205938230635,0.014264256396421971
3041.3722869976277,0.14172174975626445,0.09542881254130647,0.04629293721495798
3043.6857115424805,1.1243897932118492,0.0005265105779717853,1.1238632826338775
3043.813194668893,1.1048506104976246,0.0022079674189855285,1.1026426430786391
3046.2486204765787,0.022227581732533877,0.005020011434757895,0.017207570297775983
3046.46583036508,0.01793629030026621,0.011582983243681823,0.006353307056584384
3049.769668866049,0.9160781475294075,0.9085415420180536,0.007536605511353964
3049.930072264973,0.9156258410564598,0.9083292508906661,0.007296590165793792
3051.654920282282,0.2217039978033229,0.001515728503401736,0.22018826929992116
3052.6215406453834,0.2971857567250131,0.053045656154768826,0.24414010057024427
3053.8884409438083,0.2803557051504319,0.16271923754092452,0.11763646760950738
3059.5213753652315,0.067125234408645,0.046970471772176815,0.02015476263646818
3059.7745703261266,0.09141695347175904,0.06807559657645289,0.02334135689530615
3066.701030125392,0.32537642063216965,0.0034673825594841684,0.3219090380726855
3067.2250588711163,0.21408436704284475,0.033441486240085944,0.1806428808027588
3070.2784715308626,0.35409588553404503,0.32706446902393044,0.02703141651011459
3075.773295830145,0.04642218588975389,0.03724905476095165,0.009173131128802239
3076.043406568508,0.18918083989841833,0.1620137942885038,0.02716704560991453
3082.2481194024735,0.1670106344999911,0.0870677115558604,0.07994292294413069
3082.8700766598263,0.08510727169732644,0.0017676968921076972,0.08333957480521875
3088.1613637826013,0.031098506853416103,0.026377315139238005,0.004721191714178098
3088.698903995772,0.00160038548501668,0.0002696821173124503,0.0013307033677042296
3095.3892428532145,0.16049245015112354,0.07692473306189479,0.08356771708922875
3101.2795105980367,0.11130657920717339,0.03100787481678342,0.08029870439038997
3112.8013243601795,0.1288821357522037,4.047948953352674e-06,0.12887808780325036
3112.886672995765,0.12863152488505308,2.2752287834457496e-05,0.12860877259721862
3120.731322207447,0.4093339833843449,0.06192013044396674,0.3474138529403782
3121.0562395205156,0.41043056846587905,0.06280458593941977,0.34762598252645927
3860.1815728917654,0.22283937810934626,0.17973334719792938,0.04310603091141688
