frequency_cm1,total_intensity,isotropic_intensity,anisotropic_intensity
1.4610812795453887,0.0,0.0,0.0
1.0784719813375072,0.0,0.0,0.0
2.0853436322431935e-05,0.0,0.0,0.0
1.5727206322886558e-05,0.0,0.0,0.0
2.4242529515250846e-05,0.0,0.0,0.0
2.5566589565022197,0.0,0.0,0.0
12.286512986173014,0.003935051805472541,2.3632069645700245e-05,0.003911419735826841
25.51600795104327,0.001954357560028824,5.982129290115861e-05,0.0018945362671276655
28.345806450594942,0.0027659800478209355,6.90082036276048e-05,0.0026969718441933305
36.57547577915174,0.004369153776493342,0.00016084471270082101,0.00420830906379252
40.66618717112236,0.0058555255215490395,0.0007205484183074316,0.005134977103241608
60.06286904676989,0.0006730243684347171,3.0338711615735488e-05,0.0006426856568189816
71.56097877435465,0.005357252113614978,0.00021918178436540484,0.005138070329249574
99.19624969106836,0.0015160841263801691,0.00027773482277126406,0.001238349303608905
131.26734234122412,0.0021755938741592562,0.0011544414368363353,0.0010211524373229207
143.27584811287406,0.0013828180781096404,0.00022402542275047954,0.0011587926553591609
159.18132471025595,0.001173269274147003,6.791468759229879e-06,0.0011664778053877731
191.05839590426683,0.0011479893098518333,0.00019052414987862022,0.000957465159973213
198.77634685824856,0.002261072873042751,0.002127511329276589,0.00013356154376616228
261.7412822899414,0.0030805741900106704,0.0014674883285522389,0.0016130858614584313
288.54867364428435,0.0034119761681277658,0.0023199733936120504,0.0010920027745157154
297.912802938306,0.014433952874093445,0.010993671885793328,0.0034402809883001175
311.93682853879,0.0008563518992591605,5.4683046958461855e-06,0.0008508835945633144
365.44208927601625,0.002149465940739894,4.650572096535594e-05,0.002102960219774538
391.3172802768167,0.002507566968538124,6.264728978821843e-05,0.0024449196787499055
428.17212803097294,0.004218381449615832,9.393020181660384e-05,0.004124451247799228
462.8804051457989,0.00800790190817244,0.0023611218072949513,0.005646780100877488
479.55307931454206,0.005176723812651596,0.00022231626861864143,0.004954407544032954
519.1819204091405,0.0036957923150936875,0.0002775296275832572,0.00341826268751043
537.3205705951065,0.0027317266121032785,0.00010765385024979541,0.002624072761853483
607.317694445447,0.00921066112779592,0.002064262996677484,0.0071463981311184355
613.9271265301845,0.003518354052090489,0.00022235365665117655,0.0032960003954393127
652.7737951150499,0.029298599400649758,0.016201251606369527,0.013097347794280232
760.4900632037518,0.026990596406258102,0.02306471546930268,0.003925880936955423
812.720622981199,0.004473730110228726,0.002074439469989991,0.0023992906402387345
824.6269997817691,0.04634861654489624,0.03791688591288925,0.008431730632006994
864.4291720087178,0.015321838036201116,0.007498332068188484,0.007823505968012632
876.4393486753665,0.006222749188311032,0.0009063060266148061,0.005316443161696226
942.9359514949413,0.09168686396999637,0.0722995938179192,0.01938727015207716
964.5818641288257,0.005205923206500931,0.00010179731852480968,0.005104125887976122
981.8869820881337,0.014296615853411685,0.0012523711593511791,0.013044244694060507
991.259629966684,0.008834938388144207,0.001956233152750805,0.0068787052353934015
1003.0504319688581,0.036683530236948626,0.022367954439281978,0.014315575797666649
1010.1540971385241,0.002289912722372776,7.958969579990752e-06,0.0022819537527927853
1012.9406659896915,0.019727527641883853,0.010466767774827107,0.009260759867056746
1035.332922780618,0.03830715870204597,0.0056277306812489904,0.03267942802079698
1059.8622613777973,0.07295873540768354,0.03688913483953173,0.036069600568151804
1064.5694487304165,0.03082042207343272,0.009706859710773959,0.02111356236265876
1070.9022278138,0.002388701504512164,0.0005304151000833735,0.0018582864044287902
1075.8884275416417,0.017016841528101314,0.0019874354431187345,0.015029406084982579
1106.4941493418212,0.008823626768325108,0.00012122113469411911,0.008702405633630988
1125.1718379638937,0.037906089835753526,0.020167988823287505,0.017738101012466024
1146.7943952749126,0.01806932044291813,2.9703351149387095e-05,0.018039617091768743
1182.457292390142,0.019896595744861707,0.006548217963246203,0.013348377781615505
1229.5058871917834,0.002454114203572817,0.0015018331382783004,0.0009522810652945165
1258.898953627888,0.006666547945226871,0.0021821384192076843,0.0044844095260191865
1275.7614742929568,0.038275921599099885,0.009220535474445023,0.02905538612465486
1282.3337293077136,0.007588650875603139,0.0012699860571364486,0.00631866481846669
1293.4125427855613,0.006565948712199006,3.954993457246343e-08,0.006565909162264434
1312.7988990968672,0.08656034076235897,0.011257049421157524,0.07530329134120145
1364.6234855642683,0.012735806160933276,0.0030024544405082587,0.009733351720425018
1366.6392983295625,0.14315435576548222,0.03204020455311398,0.11111415121236823
1381.0201443304609,0.054897241523537754,0.012782278883885166,0.04211496263965259
1397.5571645155067,0.004166939252287118,0.0012371518525664796,0.002929787399720638
1413.6970885420985,0.02121409354449202,0.006302810224059321,0.014911283320432699
1418.6591969741141,0.030063691948717212,0.006902038813232546,0.023161653135484666
1423.8449203733308,0.04740620542894672,0.018551218695094636,0.028854986733852082
1432.3966662738999,0.020861847959410124,8.66380562317486e-05,0.020775209903178375
1467.224472406748,0.018872643046922464,0.0004634039923031944,0.01840923905461927
1473.6569727249891,0.027170719928340956,0.00010233630029959214,0.027068383628041363
1474.624260083265,0.023782729049728796,4.56024455998492e-06,0.023778168805168812
1476.5806158383934,0.06059076817054122,0.0028061939321324656,0.057784574238408756
1482.5763611897642,0.020085645518322273,0.003464035889096139,0.016621609629226135
1488.6415181574166,0.03800964890118187,0.005761808398251175,0.0322478405029307
1491.4583814165114,0.004841681674871046,7.631025429842221e-05,0.004765371420572624
1492.5680238368034,0.01892387903387279,0.002564696751713889,0.016359182282158904
1495.0287749176084,0.09459943317743924,0.025625739401482946,0.0689736937759563
1506.733342514923,0.05475083601655993,0.0032559651235055747,0.05149487089305436
1512.8798882756712,0.06425213829307178,0.011509670928258428,0.05274246736481335
1771.3497117736688,0.5077230295182831,0.31462051397238283,0.19310251554590024
1775.3333405836233,0.33578902098250263,0.19933697397971212,0.13645204700279048
1818.5888735517099,0.025776425708189186,0.008083689156289585,0.0176927365518996
3040.686143574112,0.3457419804342885,0.24921131738355742,0.09653066305073107
3042.5311731483084,0.6664308778312329,0.5444749595788295,0.12195591825240334
3048.9849072360075,1.7447686762794343,1.5836315755771695,0.16113710070226483
3060.032719603135,0.7792643817644108,0.7202961969815018,0.058968184782908974
3068.2039196212277,0.45376442372681725,0.3680784510221129,0.08568597270470438
3079.302638978246,1.0457068282016269,0.8987363725724112,0.14697045562921557
3082.817626715939,0.46958658863422176,0.44702893926043014,0.02255764937379165
3090.1572429955345,0.2140576528720571,0.0004881523612526273,0.21356950051080448
3091.824779352148,0.2474656902160549,0.06594108256348315,0.18152460765257175
3093.535206979656,0.5929413415255065,0.003199818381863953,0.5897415231436425
3106.1870277361636,0.26771234256697446,0.00014814715590301365,0.26756419541107146
3115.5692574148165,0.10774933261160537,0.049869123109779506,0.05788020950182586
3136.055680546955,0.15794031923891494,0.008942694739199591,0.14899762449971535
3144.8015947320873,0.20157090348836051,0.05471234163985186,0.14685856184850865
3147.0648243489914,0.2036296570491562,3.013498410758869e-06,0.20362664355074545
3147.272030643876,0.5094535118470818,0.24002789812958397,0.2694256137174978
3157.036736945376,0.2313523381437998,0.030412071711055366,0.20094026643274443
3160.4100021954373,0.2728967310747746,0.2129844647033497,0.059912266371424876
3172.7070600315333,0.2023415047904184,0.015248109892450509,0.1870933948979679
3190.8323320358654,0.3044327460313886,0.039522051560333414,0.2649106944710552
