frequency_cm1,total_intensity,isotropic_intensity,anisotropic_intensity
2.0341158827207795,0.0,0.0,0.0
1.2429691324287682,0.0,0.0,0.0
0.7178491053014381,0.0,0.0,0.0
1.1947562519523337e-05,0.0,0.0,0.0
1.5070093983116858e-05,0.0,0.0,0.0
2.0808449752999974e-05,0.0,0.0,0.0
27.72214094203718,0.020445111601546898,1.873658391368581e-05,0.02042637501763321
40.08600210515814,0.001396455706441057,3.4604721864405595e-05,0.0013618509845766513
51.37260479285844,0.012830226187248672,9.216284479477748e-05,0.012738063342453894
91.61424182090167,0.003496140910223526,0.00025575444257257615,0.0032403864676509497
139.8916617301627,0.009765699624883748,0.00012826571331813676,0.009637433911565612
170.50444274438635,0.0020208918130133545,0.00042703416075915134,0.001593857652254203
192.8174418750181,0.0020753779066640977,0.0006791090689519243,0.0013962688377121735
219.95331816810972,0.006063429271427341,0.0031629105200329777,0.0029005187513943633
230.3070521449814,0.0036119519403468763,0.0025036711793712117,0.0011082807609756648
253.49609638993377,0.00030289253303331266,1.0013742747792428e-05,0.00029287879028552024
258.41879067187523,0.0011350205342701264,0.00035952377507228965,0.0007754967591978367
269.11649691180946,0.0006700056496165656,7.713517180121827e-05,0.0005928704778153473
277.69280118181786,0.005113426826673366,7.355709200606042e-05,0.005039869734667306
292.14373753471824,0.0019286080332347618,0.00032194555008028,0.0016066624831544817
315.12417923134524,0.010763271939188968,0.006933263126234343,0.003830008812954624
345.31995016253495,0.002950799773954814,0.0003362328871578757,0.0026145668867969384
355.22243124441076,0.001402896211044555,1.0238707958215881e-05,0.0013926575030863391
367.15669071834185,0.0037119494848636267,0.002206134798160205,0.0015058146867034218
408.62385074090963,0.0040761679208320065,0.0017334991065555243,0.002342668814276482
414.1864184330022,0.00014318234504970625,8.047617547992092e-06,0.00013513472750171417
457.89436679394163,0.007668792443491121,0.0029885697089688753,0.0046802227345222455
465.8241761153714,0.0024939566511405836,0.00014929027416629183,0.0023446663769742917
509.34500425511123,0.004630062247803737,0.0035561426106117365,0.001073919637192
554.5494160138065,0.01837235682812925,0.017120926839403135,0.0012514299887261137
568.3978697965192,0.01185247499935498,5.409390325501203e-05,0.011798381096099968
590.0731144389359,0.02171597881302062,0.01873821845463606,0.0029777603583845623
634.7323640592273,0.016609418822504194,2.5183049300229507e-05,0.016584235773203965
719.932205154266,8.648878503133935e-05,7.4105253263695725e-06,7.907825970496977e-05
738.912977269194,0.037168254563159774,0.0323852225345423,0.004783032028617478
782.6391344067684,0.1031764378398742,0.09811335110487697,0.005063086734997218
788.3598838397966,0.007681790932475647,0.002520783781998396,0.005161007150477251
874.8185617786254,0.0033874061180851943,2.8773926833222668e-05,0.0033586321912519716
901.9065290743267,0.018405332564214245,0.009637000697925202,0.008768331866289043
923.0168799116008,0.030236370187321865,0.005068294233128356,0.02516807595419351
928.999357225825,0.01568545000507978,0.001469189405259791,0.01421626059981999
933.5966457871664,0.0190030102760406,6.4872423359808e-05,0.01893813785268079
939.555643156047,0.024051548652336767,0.001522496411288598,0.02252905224104817
951.2214747267535,0.0037395855019772594,0.0003488656071234152,0.003390719894853844
960.5030401025451,0.008210213922714127,1.8726592340480537e-06,0.008208341263480079
965.4153119242535,0.00024389931269922494,3.495648485188108e-05,0.00020894282784734386
1012.251351804376,0.0008686042610739183,6.495686215765078e-05,0.0008036473989162675
1016.6597598107386,0.0726264332724134,0.043723003408432874,0.02890342986398053
1026.434803341899,0.04845982568337005,0.022437038894860123,0.02602278678850993
1028.074488133095,0.1174323448324084,0.10781722170465259,0.009615123127755807
1029.5857329737457,0.012997386965553784,0.006040051661982909,0.006957335303570875
1045.2048331333613,0.00983511501417666,0.0010005215085315568,0.008834593505645104
1055.3217887326105,0.022337401503572614,0.013144373743139835,0.009193027760432779
1065.4195851737616,0.14284998192440365,0.12470896008336815,0.01814102184103549
1114.6803860059847,0.0029192779644439627,0.0011151001688231926,0.0018041777956207703
1136.664562544803,0.04174815447389747,0.03525365438526885,0.006494500088628629
1175.676467970189,0.017840576173127936,0.00014259905467211564,0.01769797711845582
1199.9383413613816,0.01931267162063366,0.0005971146346877642,0.018715556985945896
1212.2232988331436,0.025811896237654175,0.003220444673900261,0.022591451563753914
1232.579750509986,0.01839794128496152,0.0003536623170635963,0.018044278967897925
1247.230967319953,0.01481926062900218,5.297833210418431e-05,0.014766282296897994
1269.8476505881952,0.027190037724111618,0.0002683240643866049,0.026921713659725014
1297.5927210819193,0.04597833411362248,0.014401421067357598,0.031576913046264886
1308.2228993196911,0.0413513818749296,0.032633290917981735,0.008718090956947864
1319.6939782469178,0.017434505686415594,0.009504275938408881,0.007930229748006714
1357.4049758363992,0.0022691385383119492,2.5605356553670442e-05,0.002243533181758279
1392.7586164743434,0.002587199590727326,0.00019414545752186163,0.0023930541332054644
1395.1563779816618,0.0024696243145998715,0.0003680497813918515,0.00210157453320802
1397.2664800587154,0.006240149754372253,4.6706381694786485e-05,0.006193443372677467
1409.799806978974,0.004517482587380237,0.00017176534234958652,0.004345717245030651
1416.828693029383,0.0015993603832160919,0.0001456868639634021,0.0014536735192526898
1466.5665077350427,0.0034688326174155512,3.785557044274115e-06,0.003465047060371277
1476.018404590601,0.020303976199880443,0.0008086685112753513,0.019495307688605093
1476.7610216828048,0.04024308051761265,0.0003523387973531909,0.03989074172025946
1478.7925186999512,0.027727645477781677,0.00015568850403167763,0.02757195697375
1482.5350632607351,0.05204100399266963,9.820895094166372e-05,0.05194279504172797
1492.9131248222664,0.007466531481929439,2.3529728638241395e-05,0.007443001753291198
1493.8385854311523,0.010736727552492222,0.001681478572367213,0.009055248980125009
1494.1350640071246,0.007263051673660951,0.0004988927132679967,0.0067641589603929545
1498.4553153691768,0.0330194192728216,0.003831680226666261,0.02918773904615534
1506.9581540579074,0.0035908636077163687,0.0004973757029115875,0.0030934879048047812
1515.7015072163047,0.01607462341619321,0.01435365452329648,0.0017209688928967318
1546.2917577876765,0.0021847203605192276,0.0007261637293450329,0.001458556631174195
1662.4626559136761,0.041224766515835135,5.955616784654129e-06,0.04121881089905048
1684.9585901306507,0.1460101186806479,0.015041731403193107,0.13096838727745477
3066.8679202211515,0.5484987036566159,0.527454149610643,0.021044554045972927
3067.148012755228,0.16550268400725845,0.16296639819039316,0.002536285816865307
3069.174221792226,0.005903704949351273,0.0008414509519245132,0.00506225399742676
3073.4334073757636,2.117491861375511,2.0551190987306716,0.06237276264483947
3081.978531777147,0.993262734107571,0.9660866144995689,0.027176119608002158
3137.698833528589,0.07227810556973095,4.713146166448807e-05,0.07223097410806646
3139.7797419109306,0.08976678590596339,0.0002680847814093,0.08949870112455409
3144.4315232672443,0.3719516479443189,0.017781904360301568,0.3541697435840173
3144.956046064995,0.20842239514233715,1.375944087998332e-05,0.20840863570145718
3148.4208769495062,0.3460822011431367,0.005961355398479738,0.34012084574465695
3151.174245185036,0.28530888842729196,0.0010697099426460886,0.28423917848464586
3151.8914101199584,0.05854622935544591,0.004089688027826448,0.05445654132761946
3155.2457966292413,0.22410817361610352,8.256310152743089e-05,0.2240256105145761
3155.583946031601,0.32080074010657617,3.034918594799099e-06,0.32079770518798134
3165.360540901233,0.17090727930858163,0.004748764079389435,0.1661585152291922
3190.8458332333425,0.17971811800149798,0.009789966528803928,0.16992815147269405
3200.191325516656,0.5080746859548596,7.297682270721706e-05,0.5080017091321524
3211.5943933339527,0.24675186458839132,0.04291085446725383,0.20384101012113748
3218.645959181239,0.009508556700418391,0.0077664475716685884,0.0017421091287498035
3223.359283483679,1.521172560383785,1.2556760898318733,0.2654964705519116
