frequency_cm1,total_intensity,isotropic_intensity,anisotropic_intensity
1.2858405607629406,0.0,0.0,0.0
0.9639953775998598,0.0,0.0,0.0
0.5601679831669419,0.0,0.0,0.0
2.2286574277609424e-05,0.0,0.0,0.0
2.125681477993435e-05,0.0,0.0,0.0
3.845942341471003e-05,0.0,0.0,0.0
18.22912734645603,0.011569168246088928,2.6215801783890387e-06,0.011566546665910539
32.61680943634328,0.013134480251766993,6.352029980378996e-05,0.013070959951963203
35.416352643535184,0.008911466058797836,3.3064373474871357e-06,0.008908159621450348
57.74244174783973,0.001167980833378494,3.326692980055755e-05,0.0011347139035779363
70.12671813652275,0.0015399865523256678,0.000323759688896745,0.0012162268634289227
82.91950331401888,0.001598702947206485,1.2143961332522627e-07,0.0015985815075931597
94.68092999249242,0.0006603095163392158,1.695708042242352e-05,0.0006433524359167923
102.71081528987358,0.0004929340747820836,3.435274630628015e-05,0.0004585813284758035
148.05336343345095,0.010043465208417271,0.0003120970765730177,0.009731368131844253
160.04826991269576,0.002158086565755975,0.0007442044968833872,0.001413882068872588
179.34281305076843,0.0016457501687746233,0.001288369207844082,0.00035738096093054143
183.06150349068554,0.00209392480718375,0.0004895319586807197,0.00160439284850303
222.57787864714766,0.005155471623338638,0.003419696345567954,0.0017357752777706838
245.62293667155066,0.0011534787501222465,2.8820947675065592e-06,0.00115059665535474
267.3783925203215,0.003380828943983687,0.001964093584469057,0.00141673535951463
274.5135884404908,0.004346208796853946,0.0030744069595696616,0.0012718018372842852
314.18317726686087,0.011531528497888799,0.004646174594488533,0.0068853539034002655
318.80087453297847,0.010232193960926166,0.006470536788082573,0.0037616571728435917
374.66553175761595,0.0015432269838026107,0.00017968406759247225,0.0013635429162101385
413.11389859518926,0.00014039190450703697,2.8779894988814908e-05,0.00011161200951822205
421.07378302650204,0.001083189090269485,0.0003805318643193471,0.0007026572259501379
460.7995931182074,0.0023562926756988184,0.0006292222750245999,0.0017270704006742185
464.1132931001949,0.006448687415485406,0.0005558469769639754,0.005892840438521431
486.8910766962138,0.008906470732112941,0.007223153188909689,0.001683317543203253
542.7106577561296,0.021261552548241268,0.008210092714644499,0.01305145983359677
568.0707538510121,0.00255946318581495,2.2748223444446776e-05,0.002536714962370503
630.3722513422936,0.024194892081031517,4.814186231927107e-05,0.024146750218712248
670.3466464441623,0.017886619821461232,0.015910669289764742,0.0019759505316964895
713.1021791843499,8.84080540592611e-05,5.793801122036221e-05,3.047004283889888e-05
749.8663055732877,0.042254924189197546,0.0362501209440388,0.006004803245158747
773.5809940141393,0.0195810170149719,0.013453569192953582,0.00612744782201832
787.8878310167034,0.016971180232578587,0.008919195954878128,0.00805198427770046
810.2561683125714,0.0014536940560946217,0.00083743695297211,0.0006162571031225118
811.6729656161998,0.01588907566281568,0.014178402871114281,0.0017106727917013992
820.1051057575585,0.0482999722436636,0.042243350911465166,0.006056621332198435
852.1544166640339,0.09328853532452024,0.07572755402042079,0.017560981304099443
875.4672667421894,0.006028319893941558,0.000449458901207703,0.005578860992733855
880.3637317841176,0.010298555163107511,0.00013255898924384457,0.010165996173863667
956.083741165953,0.014328074422567698,0.000519044317906955,0.013809030104660742
973.3897579414128,0.0009912591778556987,8.75893065897864e-05,0.0009036698712659123
988.5078931728618,0.005503308906465558,0.0003621168431248408,0.005141192063340717
1011.6394076236212,0.007096606045969399,0.003878590194362896,0.0032180158516065035
1020.3554775487606,0.0004100287435581284,0.0003352776373232611,7.475110623486731e-05
1030.1607653663154,0.20130646448378978,0.17706297734066787,0.02424348714312192
1040.6096631222547,0.00029569534520070803,4.7505719499656496e-05,0.0002481896257010515
1063.846479817835,0.1262416218088189,0.107336953475002,0.01890466833381691
1073.0624169235246,0.027520580057982837,0.0006582310418225823,0.026862349016160254
1097.2183173857181,0.03428299512234293,0.006464212964140246,0.027818782158202687
1118.6900907802956,0.013253985892973396,0.011848364982037172,0.0014056209109362238
1123.7607162357924,0.015110051917144334,0.00596554682296477,0.009144505094179564
1126.4654659066098,0.039927402338614255,0.03537535990151214,0.004552042437102116
1157.1085092667543,0.01646280832851127,0.0035468261695731956,0.012915982158938074
1178.4740245872713,0.03152056275906647,3.084757107497655e-05,0.03148971518799149
1185.2224872744032,0.004123068126747677,0.0037435089695296163,0.0003795591572180604
1196.7106182925756,0.00803571221949392,0.005868047175337519,0.0021676650441564
1207.1724019588492,0.05103206593166206,0.037478783275572185,0.013553282656089877
1221.6986401779911,0.31457211302390786,0.18366833184116485,0.13090378118274304
1295.1922836461176,0.04425092399973843,0.010717229295282968,0.03353369470445546
1324.6165404659891,0.004748222184847821,0.0027296167865045813,0.0020186053983432396
1325.9864837214934,0.019139208147163658,3.462782128743614e-06,0.019135745365034915
1331.5075251518992,0.018252702210705105,0.0031551930304447454,0.01509750918026036
1338.6664153816541,0.019944613730045906,0.012851787220853679,0.007092826509192228
1358.7901000299016,0.022281929807933955,0.008522092148990718,0.013759837658943237
1395.2752141937403,0.0033507802316747005,0.00012741294082209596,0.0032233672908526046
1397.5638578072055,0.0031360121539828,9.019422770810145e-05,0.0030458179262746986
1409.7580772475196,0.009494477022652773,0.00017311573392552094,0.009321361288727252
1425.7431368223401,0.0018588710893098275,0.0011371370456126934,0.0007217340436971343
1432.0060151262414,0.005076367591128436,0.00279889859809954,0.002277468993028896
1479.1771511665318,0.030392402613650015,0.0010503705505641346,0.02934203206308588
1482.7564039816743,0.032050075138366156,8.89701980648643e-05,0.03196110494030129
1490.8816908832657,0.035162121674934294,0.004809996433563847,0.030352125241370445
1495.685253731009,0.019535585374503638,0.0068375146123047775,0.012698070762198858
1503.4378688031306,0.03954860660065288,0.0007879676642168802,0.038760638936436
1514.7460282407988,0.016156716529637086,0.0007092929345135251,0.01544742359512356
1523.3564726131196,0.012862829265528473,4.94186771377418e-05,0.012813410588390731
1540.7197254742503,0.028717113838177204,0.007954572480271588,0.020762541357905614
1660.0203471322727,0.04034460634011312,0.009245969511279113,0.03109863682883401
1679.5936676424724,0.6482493437457971,0.135007858341908,0.5132414854038891
1791.0195509828875,0.3042956945374945,0.19030548630848645,0.11399020822900807
3066.8539535674754,0.779675376693302,0.6818929161293938,0.09778246056390821
3067.20417578852,0.9835644869038913,0.9204086546477608,0.06315583225613057
3074.998632656441,0.5842825295614111,0.505309498355972,0.07897303120543907
3076.397014697798,0.1545571223768127,0.13853356270415404,0.01602355967265866
3089.957704052045,0.8730176232606998,0.6567985642110605,0.2162190590496392
3130.6260701421834,0.08425534195709505,0.0070473822584478825,0.07720795969864717
3131.212004388092,0.3735687614842353,0.003938292032875326,0.36963046945135997
3133.404197731794,0.47663506003835365,0.11800835463225959,0.3586267054060941
3137.18530662151,0.3525561822492287,0.040483657455099874,0.31207252479412884
3146.3183684151095,0.2360166762686525,0.024301170308355567,0.21171550596029692
3161.069322301515,0.05724087633264631,0.028077967011527618,0.029162909321118695
3162.8350468254193,0.020469258638354023,0.011814339256018921,0.008654919382335102
3198.4132310292384,0.18413452298452435,0.0006668665997088701,0.18346765638481546
3207.9594208008593,0.5419448748935886,0.0014333161912197978,0.5405115587023688
3215.76021227258,0.2371187724821318,0.03830626940010991,0.19881250308202192
3224.2410496333337,0.5849919839343352,0.4555733711402187,0.12941861279411646
3230.841932104024,1.0970973372746504,0.9111698806129229,0.18592745666172755
