frequency_cm1,total_intensity,isotropic_intensity,anisotropic_intensity
1.4451267859257755,0.0,0.0,0.0
0.6518105366039789,0.0,0.0,0.0
2.1611504195416002e-05,0.0,0.0,0.0
1.2611424616389057e-05,0.0,0.0,0.0
1.7541385560019882e-05,0.0,0.0,0.0
1.1581234620176621,0.0,0.0,0.0
24.15259553276696,0.0032139832485263554,4.725552562448063e-06,0.0032092576959639072
24.689924698100555,0.005074755164895107,8.018602597882297e-06,0.005066736562297225
29.31148306304416,0.001336172954808294,0.00014781187492605188,0.001188361079882242
32.56081768684598,0.0008793595311569792,2.325938386247077e-05,0.0008561001472945085
37.93653680878993,0.006906628602479467,0.00011954445612465865,0.006787084146354808
38.98323101080792,0.0016882474130430873,4.4098546494679564e-05,0.0016441488665484077
42.929801604106885,0.0012777058297827164,1.2162646567441085e-05,0.0012655431832152752
51.04732494723775,0.0027663990988235497,3.676839521354803e-05,0.0027296307036100017
54.99340702033014,0.013067908169974506,0.00017446652124071307,0.012893441648733793
59.98209346412041,0.0016989476578487973,2.8255546346407402e-05,0.0016706921115023899
67.08889074047819,0.000930404960992949,0.0001525557702011346,0.0007778491907918144
69.47494877047701,0.0025176618804884626,0.00041549551982063293,0.0021021663606678297
75.82759864143898,0.012520917822178327,0.0008971649517273397,0.011623752870450987
96.41693183124163,0.00045945771733906486,3.59698131528315e-05,0.0004234879041862334
99.35444761551959,0.0011877101543617246,0.0003851991786838794,0.0008025109756778451
109.1542232897227,0.00030352321941672675,8.560845101669089e-07,0.00030266713490655984
120.02772569970696,0.00036483445627987995,3.484630233183948e-05,0.0003299881539480405
129.87582263340138,0.00015318581328702238,6.910631986957057e-05,8.407949341745183e-05
134.57525985327808,0.003479836331060908,1.8628249245344604e-06,0.0034779735061363734
137.78587332360846,0.0021719853002929767,0.0009628754825945305,0.0012091098176984464
143.52763062512884,0.006841671799976976,0.002229898253480934,0.0046117735464960416
153.414943053404,0.0011218636619623745,0.0005447937385981624,0.0005770699233642123
165.05021522255032,0.0015371825102155634,0.0005515124077819893,0.0009856701024335741
168.08327509516334,0.0011528550658945784,0.0001500854472976902,0.001002769618596888
185.7366519053226,0.001542065228429991,4.784555778582912e-07,0.0015415867728521327
206.52996089217413,0.049433271101810644,0.04579447612172117,0.003638794980089476
214.41223296937656,0.0007969848081702754,0.0003331291389766447,0.00046385566919363074
243.09347254726876,0.000438625272145732,6.24961712431966e-06,0.00043237565502141236
245.17830414713532,0.0005664479464240677,1.0993541696363954e-05,0.0005554544047277038
246.64909008010196,0.0002965681867384657,0.0002199762119230503,7.659197481541539e-05
248.66325723237694,0.00015030908501728995,2.8739024487493268e-05,0.00012157006052979669
266.3416739200453,0.0056558048410246435,4.2278102649947005e-05,0.005613526738374696
269.3344391414772,0.0038388424037269614,2.5484089033478437e-05,0.003813358314693483
302.98695177286123,0.007116008201760575,0.006189447977236272,0.0009265602245243035
312.8302543878391,0.002375028685834147,3.567571980277037e-05,0.0023393529660313763
320.4429845445426,0.002616116113165689,7.161528812844367e-05,0.0025445008250372454
325.8631230142248,0.006604821997253427,0.0011519837642167104,0.0054528382330367164
380.5895952264464,0.001192081778287247,0.0004682820834459033,0.0007237996948413437
384.2662740829088,0.002349346769396865,0.002027957626078943,0.0003213891433179224
452.08727431456373,0.004669022567049627,1.0243190823490036e-05,0.004658779376226137
456.4896699085248,0.0031919192295074774,0.0007358567250106561,0.0024560625044968212
460.6061095003406,0.001186360222963931,1.0957177600331812e-05,0.0011754030453635992
485.12032269925965,0.015746552600966836,0.01539606580572208,0.00035048679524475775
500.1148005633864,0.002519220604440449,0.0007252922181839628,0.0017939283862564862
510.3048573693202,0.003939548101985815,0.0005064309034351936,0.003433117198550621
546.9420796153178,0.009670096072854193,0.00024289260337222713,0.009427203469481966
552.6039969885795,0.004900083503521181,0.00018337412934178949,0.004716709374179391
637.2755787340582,0.008326970724333308,0.0031222164602065245,0.005204754264126783
738.6116849404121,0.0013392458220809363,0.00102264716616977,0.0003165986559111663
740.2322528210333,0.0014262746354391025,0.0003191014702845158,0.0011071731651545868
741.4561076743893,0.0026298722103070453,0.000882436126619759,0.0017474360836872865
742.8922460356805,0.00043740078975382896,0.0003275127236705716,0.00010988806608325733
771.1605360321587,0.001661568266711423,0.00018620555328419184,0.001475362713427231
772.7917228856882,0.005376681499635626,0.0033364517125006442,0.002040229787134982
778.2332790955601,0.0057082864415521845,0.004259369054765403,0.0014489173867867813
780.7682583984506,0.003878682747119877,0.0025659675995210393,0.0013127151475988376
809.0944223330703,0.09859836426709666,0.09517777006378682,0.0034205942033098393
855.3042262921939,0.0020656093816045,0.0012694062861367775,0.0007962030954677225
857.6764491142521,0.001495476111625742,0.0005232600190575131,0.0009722160925682288
865.7697245198239,0.0667551043623202,0.06318263913839882,0.003572465223921382
869.4700851959544,0.1213465255792005,0.11752657321307772,0.003819952366122792
870.7974218667149,0.0243257856537389,0.02265425017253265,0.0016715354812062504
910.0661270053697,0.01960376701952217,0.0003192973343016522,0.019284469685220518
910.8520459546316,0.022635427189218817,0.00026488146456399173,0.022370545724654824
911.6023740195034,0.009290440073371549,0.00047102300483388865,0.00881941706853766
923.90988771231,0.2254347359293928,0.2226668102009047,0.002767925728488096
943.8339446139126,0.04540548167825639,0.02371792245513265,0.021687559223123747
975.7232921661279,0.006431988569975574,5.2933867212352937e-05,0.006379054702763221
977.6254210725399,0.010788978861619435,1.976975669046404e-07,0.010788781164052531
994.5748836903584,0.003609591365713715,0.0014500490779214659,0.002159542287792249
1022.2889577792507,0.005871475843448235,0.0022039074766432376,0.0036675683668049974
1026.5138232775034,0.008814175973658042,6.21367774293091e-05,0.008752039196228733
1032.473586947828,0.0038165148223540217,0.0007601198479601215,0.0030563949743939002
1044.1407757970098,0.0016958604531303145,0.0007926392066686846,0.0009032212464616298
1047.788082095532,0.0022771369638333585,2.6034163937038625e-05,0.00225110279989632
1051.7278717772442,0.013987194437728749,1.874592661660645e-05,0.013968448511112142
1054.6287311603344,0.01323645676292499,0.001658892911066087,0.011577563851858902
1068.952060742046,0.01553905352558261,0.008766940452878971,0.006772113072703638
1079.4387304717732,0.03683421582584388,0.0018274735333777509,0.035006742292466135
1081.2208707523412,0.04718859152564965,0.0029035908785069835,0.044285000647142664
1085.255790010829,0.06320677130526921,0.0014176756482782726,0.061789095656990936
1088.1982447447492,0.04754566125154257,0.02817250608007097,0.019373155171471593
1092.6201350985527,0.01674722354238517,2.8771031215648686e-06,0.016744346439263605
1094.4494999519538,0.004456752092228196,0.0007927541227985923,0.003663997969429604
1099.6669565968807,0.00911947982191584,0.005807060089407439,0.003312419732508402
1140.3979346089154,0.16882074163087968,0.16579987840573357,0.0030208632251461187
1142.2974475634458,0.036798277879355246,0.009173889848772673,0.027624388030582574
1142.9598936222878,0.025936910189586656,0.00016598431750323517,0.02577092587208342
1159.1165382639938,0.003244833658785163,0.0020997677829327965,0.0011450658758523666
1185.1467195937246,0.007708308604537032,0.0055622202716371335,0.002146088332899898
1201.2129260005752,0.026497263261307906,0.001790327021019022,0.024706936240288885
1201.4168464830982,0.024070949116693587,0.003284176709216069,0.02078677240747752
1212.4768481412234,0.017459106047349664,0.0020724456488162104,0.015386660398533453
1245.0443473076334,0.00193746170348563,7.126724237536806e-05,0.0018661944611102618
1253.0047802876861,0.0053855545094683354,0.002165383127499098,0.0032201713819692375
1253.0341692346972,0.006485006866354587,2.1004104235909547e-05,0.006464002762118677
1264.0179332314895,0.0038544080746606823,0.0006191005084198226,0.00323530756624086
1276.174718131875,0.05946009824972592,0.05423495305785903,0.0052251451918668874
1280.747555487145,0.012041062468803175,4.939445904206169e-05,0.011991668009761113
1284.7220071935824,0.010246756365638219,0.0024300149126089327,0.007816741453029286
1288.0499296936223,0.006978570765732408,0.0007994063844635296,0.0061791643812688785
1313.2383203074883,0.025011966269657543,0.002925639908335339,0.022086326361322205
1319.4335110974607,0.003841325640076139,0.00013567037808006352,0.0037056552619960754
1319.6043530370594,0.004594535539805106,0.00028309839093418603,0.00431143714887092
1329.396592916615,0.0024391995475171796,0.00039877188114447446,0.0020404276663727053
1336.396708066737,0.01617628749483168,0.00021287701013866653,0.015963410484693012
1338.1844883856515,0.03623223883170969,0.0015733039673025819,0.034658934864407104
1340.9091746929055,0.05877176659943994,0.002712724720263429,0.056059041879176506
1341.6966976396618,0.04657749745400968,0.00018498276340978925,0.04639251469059989
1347.2163296606805,0.0758081685209591,0.005175872263480874,0.07063229625747823
1350.6823966279753,0.014790447215154729,0.002149954876195233,0.012640492338959496
1351.7293537464952,0.020037321051497064,0.0012876837656498692,0.018749637285847196
1361.179221521305,0.006528558533302591,0.0005108200548441427,0.006017738478458448
1361.9781101531355,0.0045661105790255,0.00019917311483643496,0.004366937464189065
1366.2143214058353,0.027268100499766544,0.007118045338060285,0.02015005516170626
1372.802391955596,0.018875712795738533,0.004272840290056203,0.014602872505682332
1392.3698945002611,0.01691305691462175,3.40935671700932e-07,0.016912715978950048
1408.4820489087654,0.017592458051597475,0.002224110743008713,0.01536834730858876
1409.1222624076279,0.01080193656925843,0.0028447054704767247,0.007957231098781705
1411.4949705684858,0.021113153114799846,0.010074616293681109,0.011038536821118737
1412.0674722143783,0.004584736744009931,0.0004760861074897634,0.0041086506365201675
1412.6200012973172,0.002878177984310294,0.0006951040306795114,0.0021830739536307826
1412.891935520554,0.0016860032763654485,3.002192824680177e-05,0.0016559813481186467
1413.2416609025759,0.0018549465601680674,0.00024326443486801243,0.001611682125300055
1414.756121728099,0.010662766588336498,0.0029018347718533545,0.007760931816483144
1427.2980499484518,0.02191047514989211,0.013806769077231103,0.008103706072661008
1432.9792023867965,0.09921850177374361,0.0954832089384795,0.003735292835264115
1438.1239716207058,0.018703328339614536,0.012635221175651289,0.006068107163963249
1452.142453405158,0.025701073130061376,0.020700762950985448,0.0050003101790759286
1470.958104059431,0.018395727632092736,0.0008597352728411988,0.01753599235925154
1476.673126189799,0.020500509858491722,0.0007622350986860587,0.019738274759805663
1478.0113083390393,0.15177777517247937,0.10534745747597288,0.046430317696506476
1479.3058079396978,0.03695613735753751,4.443919579185686e-05,0.03691169816174565
1482.2428983684092,0.07262070750135284,0.013340298878723029,0.059280408622629815
1483.1285070967297,0.02777569679837998,3.6833108120599236e-05,0.02773886369025938
1484.632968987715,0.13917770657985942,0.0745588129442741,0.06461889363558532
1485.9007268550054,0.09688026046158908,0.012361926802041229,0.08451833365954785
1488.6471121260333,0.10748114181002927,0.007358050990793429,0.10012309081923584
1489.3522833170205,0.013904056155475512,0.003753743606683124,0.010150312548792388
1490.1972501739035,0.0486466901722504,0.0019161142731855133,0.04673057589906489
1491.892568597151,0.007734805418744747,0.0013041231325708659,0.0064306822861738815
1494.4122633051263,0.027270357297839457,2.2472080100144712e-05,0.027247885217739312
1494.875031492289,0.027622368736128333,1.1062734974602112e-06,0.02762126246263087
1495.1731429404538,0.03319392444527811,5.820104264198136e-05,0.03313572340263613
1495.3208937402749,0.025618263517613857,2.8929044481947433e-05,0.02558933447313191
1496.8326051440667,0.005430996549187949,0.0006966773291554643,0.004734319220032484
1501.4984607152132,0.0072721051356582226,0.0005259353835448296,0.006746169752113393
1502.1255242549555,0.0018326706676995972,4.286494469500716e-05,0.00178980572300459
1503.0337519087275,0.0038949867246805495,0.0014604061792744159,0.0024345805454061334
1504.4239071822642,0.00617402786325001,0.0005618524167834782,0.005612175446466532
1505.8207104746411,0.000755035694330381,0.00012549154037193224,0.0006295441539584487
1511.6051469346546,0.008774197512268893,7.221629285924444e-05,0.00870198121940965
1528.4821354877902,0.01870145060867202,0.011935620942767922,0.006765829665904099
2175.261073337601,0.4639825529513812,0.21416100294873447,0.24982155000264672
3013.829860926718,0.5376394081542472,0.478988594033536,0.05865081412071116
3025.5346134272518,0.5277707305589728,0.478055660660318,0.0497150698986548
3026.6260629305666,0.6326472853895971,0.5588992931580264,0.07374799223157069
3031.903536623827,0.7050914951992433,0.6048854638748152,0.10020603132442812
3034.7478915298652,0.11441999553459264,0.02777819849226481,0.08664179704232783
3037.9410623465606,0.052716822342037686,0.00014209452642863874,0.05257472781560905
3043.130012848838,0.8222878043460452,0.7881655867735632,0.03412221757248201
3043.371139772822,0.17877449395216488,0.06298703127343218,0.11578746267873272
3043.5270087256526,0.39053369078423855,0.26156667451742516,0.1289670162668134
3044.8676483664653,0.38651493570008866,0.11507053610197196,0.27144439959811667
3047.5094096497314,0.8214528879493348,0.7443461531879745,0.07710673476136028
3050.870828555219,0.4218321684792427,0.4021072426461932,0.01972492583304953
3051.6559018332755,1.6458705930003634,1.6150171707038323,0.03085342229653111
3051.8525105268604,0.3464644767742616,0.33202094638086876,0.014443530393392861
3052.754615928982,0.9325863506350413,0.9015166107029252,0.031069739932115988
3052.9932527006745,0.44592854637619583,0.42221453312115576,0.023714013255040068
3055.271876240931,0.4247342934125401,3.0029003549073545e-05,0.424704264408991
3063.5854479575005,0.3825083947947073,0.00020679994941006803,0.3823015948452972
3070.460655569261,0.4045469248977152,0.01395655262762713,0.3905903722700881
3080.136324541046,0.04901090702649177,0.006642079328632927,0.042368827697858845
3081.6524900842496,0.0721740606785887,0.0628763343945485,0.009297726284040204
3082.9324371434864,0.1721762369879546,0.014063471975734777,0.15811276501221982
3085.080986797244,0.39170252881934353,0.32671648202144543,0.0649860467978981
3089.15396801411,0.08867312000169993,0.01926225629451653,0.0694108637071834
3094.5332260969108,0.10611624759432484,0.0004985368147824025,0.10561771077954243
3098.7473290592866,0.08039256845778502,0.019911582866882688,0.06048098559090233
3099.502978938352,0.06042215523594559,0.0030957702935803092,0.05732638494236528
3104.531015044839,0.820526385406045,0.7535147268541968,0.0670116585518481
3105.168818033375,0.2718412042549543,0.17628494409657602,0.09555626015837825
3111.350940567031,0.6259812346756223,0.6050778251574582,0.020903409518164016
3115.1916157252904,0.11793371130175508,0.00038994921920788747,0.11754376208254719
3116.8961351530934,0.19264445087630921,0.07886401686386516,0.11378043401244406
3117.3850034042166,0.1177996047284987,0.005092341738661921,0.11270726298983677
3117.8634315475183,0.1020215571891415,9.486084864081667e-05,0.1019266963405007
3119.6398055978407,0.6353084525204823,0.581624214239265,0.053684238281217225
3125.835346885562,0.43766128016361266,0.0724121211757131,0.36524915898789956
3127.454595200638,0.41735201303151703,0.08305214367747993,0.3342998693540371
3128.035825164175,0.4476774789465019,0.08071139401143167,0.3669660849350702
3128.163698541081,0.3991335319957051,0.0838157385162588,0.31531779347944633
3133.730895958074,0.2703551170801903,0.056540137504648036,0.21381497957554224
3150.4210899814702,0.04657374752331704,0.0010947427239543766,0.04547900479936266
3154.3514628701178,0.020753124715621275,0.001032075884375969,0.019721048831245307
3164.920449593557,0.1547878438058846,0.029310972188389166,0.12547687161749543
3181.314233766119,0.13333210779641272,0.01550285062472197,0.11782925717169074
