frequency_cm1,total_intensity,isotropic_intensity,anisotropic_intensity
1.0719662077893757,0.0,0.0,0.0
2.904719022488805e-05,0.0,0.0,0.0
2.3187846912638594e-05,0.0,0.0,0.0
1.6297349808787646e-05,0.0,0.0,0.0
0.8071192537282391,0.0,0.0,0.0
1.1456692944194917,0.0,0.0,0.0
17.43405652083196,0.0007869087578425139,5.765957061994808e-06,0.0007811428007805191
20.177388931819163,0.0001628190009276967,1.7828351813484513e-06,0.00016103616574634824
31.484315882766712,0.0013420438101581804,9.222175163078215e-07,0.0013411215926418724
35.818145349273024,0.00033046689536391237,1.964364151719843e-06,0.0003285025312121925
44.78283438207798,0.0017531858995564354,0.00015680641605173351,0.001596379483504702
52.71185449924026,0.0015049138949991296,5.059563934918981e-05,0.0014543182556499398
68.8386142881817,0.0017186188159534917,0.00016684718006825872,0.001551771635885233
85.24236955330409,0.00047396930765472714,0.00016063555977640216,0.000313333747878325
100.36061435821652,0.00167625172922033,0.00025153285585662424,0.001424718873363706
109.37762270438768,0.0015043833570196072,5.681008087976555e-06,0.0014987023489316307
118.45964725513433,0.007367617059195801,0.0006983500894209432,0.006669266969774858
123.01191206481961,0.0003566827327104841,9.972754218481317e-06,0.0003467099784920028
140.47186027592858,0.003204430489726782,9.11538031488748e-06,0.0031953151094118947
159.1678629665151,0.0007502497010764477,6.876959979713364e-05,0.0006814801012793141
184.16093818726296,0.0006424131963789718,0.000393010807108148,0.0002494023892708238
209.62623584687952,0.0027556268344188233,0.0004559505125929242,0.002299676321825899
217.35809033638355,0.004930275875225145,0.004578614433741345,0.000351661441483801
245.0817451679314,0.00046733776086557103,0.0004007167612545153,6.662099961105578e-05
249.38608819452622,0.0027219655303831144,0.001975551344845093,0.0007464141855380216
253.5746722382935,0.0008326248515890208,0.00015830043369480929,0.0006743244178942114
262.17036514770206,0.0006545562320639947,0.0002863408523675814,0.00036821537969641333
263.647251108466,0.0006826124341022266,0.00018114827490670575,0.0005014641591955208
274.53308741084817,0.002721694473901903,0.002005360731639866,0.0007163337422620372
289.84390465147294,0.0008355562322554585,0.00071846706244433,0.00011708916981112855
292.8854521946771,0.00841465624660157,0.006203280706913421,0.0022113755396881486
316.6842806936817,0.002142718635596619,0.0009228430505097573,0.0012198755850868616
329.78497668064216,0.001448464799390741,0.00017784359858159234,0.0012706212008091488
367.5627564631263,0.0015308573584659603,5.655857436673157e-05,0.0014742987840992287
382.67482247441154,0.00304778551736047,0.0008957222200994359,0.002152063297261034
385.8029739795587,0.00429078135001609,0.002423227267736351,0.0018675540822797394
410.0899618835907,0.00597315087909399,0.0021199181647891534,0.0038532327143048373
456.40703465856683,0.0035745447724384173,0.001856304821061114,0.0017182399513773032
478.28848186124355,0.016329120669073913,0.012286114634352268,0.004043006034721646
544.2070172218298,0.00255913621813862,0.00048647071981460687,0.002072665498324013
547.9692178505309,0.0067468308039318955,0.0016329307550818387,0.005113900048850057
597.388676569182,0.017343798214142933,0.013560607480049953,0.0037831907340929788
723.1587256729359,0.0025074126369522163,0.00025529553566506434,0.002252117101287152
739.5130938278205,0.0027171213158679155,0.001387167194070001,0.0013299541217979141
742.6267327443607,0.0009763175135249337,0.0004312458556963765,0.0005450716578285572
750.9624691020356,0.010271692552131005,0.00334557351015481,0.006926119041976195
777.9914128915827,0.0032643138080254127,0.0006104361275763472,0.0026538776804490654
810.0061354020966,0.06961357273126013,0.059156751155296096,0.01045682157596404
813.9522256006667,0.019872985111938867,0.006525334013126267,0.013347651098812599
817.3408742787193,0.023067649233764226,0.014757486587903797,0.008310162645860427
847.3127493126248,0.032888481426473576,0.024986312304108572,0.007902169122365008
856.2134301759994,0.03013773809263004,0.022564556664436304,0.007573181428193737
877.8598174486419,0.00944288950085185,0.00048170434415832446,0.008961185156693526
889.1814154927787,0.017841006239553286,0.014005947753168102,0.003835058486385186
894.9950965419952,0.005946494181027969,6.5188521572976935e-06,0.005939975328870671
921.993028833443,0.028389655276582444,0.017040169672703838,0.011349485603878606
929.922646595099,0.003139749216451282,0.0004265776248702706,0.0027131715915810115
940.7993957300118,0.012285003159549557,0.006403675773920694,0.0058813273856288635
951.2104575781705,0.008547018123710223,0.004092179696968954,0.004454838426741269
974.3327702534687,0.006073178400734566,3.383217832682103e-05,0.006039346222407744
976.2574442210248,0.0033141189632552486,0.0009872179900409722,0.0023269009732142763
984.7512968675358,0.015072890437991562,0.0005006420568986062,0.014572248381092955
1008.2212114770746,0.027050889391388094,0.020562428552576204,0.0064884608388118895
1015.1955908045392,0.0016048302475034086,0.0004536266826157014,0.0011512035648877073
1016.2478022539548,0.014792567048647827,0.0070324682466939145,0.007760098801953912
1029.5650282017666,0.010685502632062008,0.006803498439511888,0.0038820041925501205
1040.2471296963188,0.00832437365407299,0.0043618731757265935,0.003962500478346397
1058.4520556486734,0.022675661560429116,0.007626419696443751,0.015049241863985364
1065.2351684522957,0.01782804301476706,0.007675780590714524,0.010152262424052537
1075.3378542727487,0.01702539435340613,0.0016607113789439366,0.015364682974462194
1078.738167271645,0.0037444918304902555,0.000560457360386757,0.0031840344701034983
1092.1614263348108,0.019562046603137453,0.003177675279733059,0.016384371323404395
1107.107258404607,0.006350539118709309,0.0012045509316576065,0.005145988187051703
1115.3510636496326,0.006049455747798908,0.0004129811254354276,0.005636474622363481
1121.9610001152328,0.04223290203598334,1.6080006407506116e-05,0.04221682202957583
1132.6826901221036,0.02418938852482351,0.0003961562394383466,0.023793232285385164
1141.2399929416322,0.017064561928444275,0.006618831525752132,0.010445730402692142
1144.2017066397384,0.00519970573670631,0.0001430629214058119,0.005056642815300498
1159.6836637538229,0.0020029081734903873,0.00020220901202165132,0.0018006991614687362
1180.966027451944,0.013130996813156989,0.00023333119844024265,0.012897665614716745
1209.481514202543,0.013987542546926045,0.0047385003515155845,0.009249042195410461
1210.047019408195,0.008078874044371128,1.4077880502088471e-05,0.008064796163869039
1212.2720181050813,0.011729927190664244,0.002501633669687572,0.009228293520976672
1227.5445977015222,0.006650106915428403,0.0009166776584036814,0.005733429257024721
1241.643669706428,0.013722601664145717,0.005048832246555373,0.008673769417590344
1248.0850611605097,0.009391612118785185,0.0003630064155850913,0.009028605703200094
1279.1247975475007,0.010068258845326207,0.0026125947174624404,0.007455664127863766
1286.524747791964,0.0014521610723867329,0.0003011938891136636,0.0011509671832730692
1293.6781590118678,0.006039386098309374,0.0007615502310700923,0.005277835867239282
1304.3065835748516,0.0039950762135548155,0.0002147314376773351,0.00378034477587748
1311.2710734164652,0.010814065755028546,0.0024247225202516094,0.008389343234776936
1318.2884263430947,0.006616010820596732,0.0017699386986570547,0.004846072121939678
1321.367439186531,0.013669148171954863,0.0015212033215045721,0.01214794485045029
1328.5697175806588,0.029755493297225974,0.00026993349310894417,0.02948555980411703
1330.269944596798,0.01932482067703524,0.001129024900404233,0.018195795776631007
1336.7143230238678,0.07023337955889294,0.0032864894306555495,0.06694689012823739
1344.7286020337197,0.09345021649741973,0.02821963489099363,0.0652305816064261
1353.2421961567093,0.040242609593478834,0.005979456493602286,0.03426315309987655
1357.518788674441,0.031190995493218424,0.0006948906749552165,0.030496104818263207
1360.369726217481,0.03780457362712359,0.019618040738577338,0.018186532888546252
1372.032491563259,0.00540793345977538,0.00013519569453499116,0.005272737765240389
1374.7841063644637,0.0019450059966530432,8.43065192581187e-05,0.0018606994773949245
1380.2721278397844,0.006533303232072247,8.722574752661499e-06,0.006524580657319585
1380.9865443494352,0.025535341470546938,0.003974346373948405,0.021560995096598534
1390.1768208684812,0.0028594166148360953,0.000295079434893664,0.002564337179942431
1396.0107098168808,0.0154005857589774,0.0017990968824385398,0.01360148887653886
1402.650767430439,0.004258386426523942,0.0002838260619132791,0.003974560364610663
1406.6212325019749,0.002217656145507879,0.0001764498694629084,0.0020412062760449706
1410.8000772019518,0.012102711430961009,0.0033689187147939834,0.008733792716167026
1411.6768690028969,0.0029904249605005213,3.8723062202566276e-07,0.002990037729878496
1412.9997042939463,0.001839604453537387,0.00020992582742706558,0.0016296786261103214
1416.1549036178544,0.003637391408196626,0.0012213934759638541,0.002415997932232772
1418.7760580557217,0.005733225983138699,0.0017948950451561123,0.003938330937982586
1473.213363081357,0.06325794261013887,0.0018952220004981907,0.06136272060964068
1475.6498472440726,0.02032917359338752,0.005719040265558362,0.014610133327829159
1477.3932655072836,0.046148767079503654,0.0020461885224543706,0.044102578557049285
1479.6282881126265,0.043974220844453904,0.004021148273292777,0.039953072571161125
1481.2365656693212,0.02643501734048439,0.001475817144130162,0.024959200196354225
1484.8383820318068,0.014268962769195002,7.601766930032782e-06,0.01426136100226497
1485.5985176621061,0.030705197106041505,0.00020226325191681374,0.03050293385412469
1487.099710984935,0.015754105410336998,0.0003253153444699677,0.01542879006586703
1487.4535116737263,0.057295832201216035,0.0007932205403234603,0.05650261166089258
1490.4502602015118,0.043110484926491485,0.0017141412429244056,0.04139634368356708
1492.519633859245,0.00565420818091768,0.00026041990424388074,0.005393788276673799
1493.6872956055963,0.023727187109245144,0.0003076381769782436,0.0234195489322669
1496.572436689772,0.0192724253070334,0.00017110688248016706,0.019101318424553235
1498.0648074797787,0.01459751867256076,0.0010733869894031722,0.01352413168315759
1499.5885927990182,0.015145831314036991,0.0003642439061296175,0.014781587407907373
1502.6589445645213,0.007802477306439029,0.00030605906687417684,0.007496418239564852
1505.947832712003,0.007863193872088257,5.184802754342241e-05,0.007811345844544835
1506.4137216693637,0.016011926855206166,0.0002493522271616736,0.015762574628044493
1510.4477252351344,0.004610591790086191,0.0007907301722915015,0.0038198616177946895
1768.0366760658703,0.18022577102974263,0.12265193314093484,0.05757383788880781
3020.0972881267844,0.4915696195307337,0.38439519523105525,0.10717442429967845
3020.9409541400446,0.16494349256235277,0.012158240266628201,0.15278525229572457
3028.020369795708,0.9089727159074781,0.7010718020094417,0.20790091389803636
3028.756451023212,0.1708801162200026,0.006378815090218389,0.1645013011297842
3033.0472272936177,0.9608153834458387,0.7468790112507411,0.21393637219509762
3034.928151015679,0.1481952789607908,0.006960573413098834,0.14123470554769196
3035.284476038056,0.5426030216705527,0.4045945817591216,0.13800843991143114
3040.040343305899,1.4508817019757698,1.2085770852369337,0.24230461673883597
3040.2461138658136,0.034485508159363826,0.009608259690001954,0.02487724846936187
3041.1378027218143,0.6753702715839949,0.492598508141923,0.1827717634420718
3043.1986687918975,0.34096204443592026,0.28390672734770533,0.057055317088214944
3043.934830933354,0.18695173879616042,0.04932259831081856,0.13762914048534186
3047.542695994403,0.49790755684054466,0.4734184170776398,0.02448913976290483
3048.742595612921,0.3714106589670157,0.33293952380374026,0.03847113516327542
3051.353434143908,1.3769349278896081,1.3100011413797505,0.0669337865098575
3052.631758197798,0.27754823458344235,0.2448851146829478,0.03266311990049457
3055.0770056863016,1.2258079087101605,1.0206597656647267,0.2051481430454339
3058.8245702046142,0.9196157848697978,0.5118526282293108,0.407763156640487
3064.2707702310045,0.06226661239394941,0.04604220866471698,0.01622440372923243
3064.702191864513,0.33567317075823416,0.043314117434980495,0.2923590533232537
3066.949442850267,0.9574031977515112,0.6209632348567574,0.33643996289475375
3072.649857262089,0.7020871391819425,0.20985330472163022,0.49223383446031227
3077.4100758990285,0.5601021131255104,0.32772082480926035,0.23238128831625
3080.418445632416,0.058850575786430936,4.301375756454099e-06,0.058846274410674485
3082.538033813029,0.0895298508665359,0.000149169697185668,0.08938068116935023
3090.5139919075937,0.11582591519688135,0.03394629396294436,0.081879621233937
3090.873836081615,0.16493106500069293,0.06898257544701676,0.09594848955367616
3093.6456397410834,0.690151927188715,0.3354766593219209,0.3546752678667941
3097.3336878422374,0.06926407285162305,0.009672356137679377,0.05959171671394367
3106.98771523916,0.015994915648753282,0.005713258149837122,0.010281657498916161
3114.4198985848893,0.27334514179217095,0.0008153692275521718,0.2725297725646188
3115.628142789645,0.02958111387654008,0.0035310382005943335,0.026050075675945746
3116.9490874159296,0.1723441885218184,0.0005493525627726279,0.17179483595904577
3118.9770426354244,0.2623773117527194,0.03417665017421054,0.22820066157850888
3119.9412029788705,0.25508297767463844,0.019949632310118155,0.23513334536452027
3124.308175177418,0.29485404916942226,0.020780395821667384,0.27407365334775485
3138.9658549413107,0.6952357680544407,0.4234555373472296,0.271780230707211
3208.043249969173,0.20975632422446633,0.16222748529177197,0.04752883893269434
