frequency_cm1,total_intensity,isotropic_intensity,anisotropic_intensity
0.49735905869693875,0.0,0.0,0.0
0.27737962298073143,0.0,0.0,0.0
3.231605256000569e-05,0.0,0.0,0.0
1.4106506931202265e-05,0.0,0.0,0.0
2.5300953857828865e-05,0.0,0.0,0.0
2.6568357328692516,0.0,0.0,0.0
7.0687785749257275,0.00029911121758870955,5.98935539405553e-07,0.000298512282049304
12.007186346057603,0.001077501642078998,5.501858795616389e-07,0.0010769514561994363
15.84355566162212,0.0011081073178029846,4.093492827214785e-06,0.0011040138249757698
18.815611293524597,0.0009554371243817174,5.726936411669286e-07,0.0009548644307405505
30.793600629296552,0.00026473960064576815,1.2793845564776123e-05,0.00025194575508099204
33.30860067168075,0.0007886509438210733,5.51587042931586e-06,0.0007831350733917574
41.89143189988025,0.00026171769391127194,1.0013010364555814e-07,0.00026161756380762636
54.118927590377936,0.00028550865719826637,2.6863106790670806e-05,0.0002586455504075956
58.040009284322885,0.0006779476392923226,0.00010546959720379448,0.000572478042088528
68.14145842325641,0.00024956585507898796,2.1776453849467908e-05,0.00022778940122952004
79.79608536141969,0.0009496395706784283,0.0003030850824020811,0.0006465544882763472
81.36680585524546,0.0002898602901863991,7.773573934726935e-06,0.0002820867162516722
91.9024359873574,0.0007581003332015552,6.723247742097944e-05,0.0006908678557805757
94.71671306238301,0.002869350400074554,0.0020268918549401437,0.00084245854513441
106.95895628979069,0.003795822372565226,0.002281038514650672,0.0015147838579145539
111.28820966005588,0.006209870687962563,0.0038259457435893397,0.002383924944373223
118.1145158583268,0.001202716348331893,0.0007301074775774584,0.00047260887075443455
119.51613423190194,0.00021494027501062584,1.2625266721970697e-05,0.00020231500828865514
135.7891570053404,0.00013046582704404189,2.5399220811497893e-05,0.000105066606232544
143.28688708064524,4.999399214605037e-05,6.17844341687136e-06,4.381554872917901e-05
158.92973860764545,2.1289035215321685e-05,4.10995763660123e-07,2.087803945166156e-05
163.5619267124707,4.407841930367243e-05,5.142612570126617e-07,4.356415804665977e-05
167.610803211877,0.00033738703783870236,5.0622837439253384e-05,0.000286764200399449
174.85453327775784,1.4475346561802437e-05,1.72096307887794e-07,1.4303250253914642e-05
176.9863330687476,2.1427124011442525e-06,4.3884078872514335e-08,2.098828322271738e-06
215.10266867549143,0.0005597390673235,3.124931391687709e-05,0.0005284897534066229
223.77197685836472,0.00010093439543090039,3.855947073530821e-08,0.00010089583596016508
234.76675040678327,0.00011659376973338088,8.554668014263421e-05,3.104708959074666e-05
246.16806577078358,2.018635243168175e-05,1.2595341739530398e-09,2.0185092897507795e-05
281.92085999472994,0.0009781799571818115,0.0005367519029470125,0.0004414280542347989
288.2416765989411,0.0007954963106673158,0.0006164269274683541,0.00017906938319896175
317.6812473598382,0.008403703697731819,0.0062444075571141825,0.0021592961406176362
332.86261594856535,0.000676422104369143,8.652919520506715e-06,0.0006677691848486363
357.03732689586883,0.0013913972898287803,0.0008855669822404407,0.0005058303075883395
404.1284498483495,0.00157810910454225,3.311999458764768e-07,0.0015777779045963735
413.9013922470999,0.0008840728194368997,0.0004850530502864399,0.00039901976915045976
463.39275754791817,0.002503988029705183,0.001374230623397478,0.0011297574063077055
473.34966529467533,0.000813079574973298,0.0004991889290889464,0.0003138906458843516
511.35326566544774,0.0012857577775798777,0.0001683648513251142,0.0011173929262547635
516.8961854873667,0.0001710825082115008,2.0420023086610417e-05,0.00015066248512489038
548.8966057918512,0.0027517388157017432,6.524441963228473e-05,0.0026864943960694587
593.7124808216123,0.0007874802274959332,0.00018782900821383609,0.0005996512192820971
707.2087237706435,0.0024935537206304845,6.828514980644054e-05,0.002425268570824044
727.7676412379735,8.905928077151147e-05,2.2591048218308636e-05,6.646823255320284e-05
728.2113896758998,5.838740878666873e-05,6.317254172671746e-06,5.207015461399698e-05
729.250690122308,2.8089766559685182e-05,6.387126468358881e-07,2.7451053912849295e-05
731.7155364469045,2.622409667959328e-05,3.952841361220076e-08,2.618456826598108e-05
737.1850194175842,8.619194985909438e-05,1.107931809247857e-07,8.608115667816959e-05
747.5612194194267,4.376168938305123e-05,5.971488437641957e-07,4.316454053928704e-05
762.8076301143401,0.0016159492553343934,5.201307539039519e-05,0.0015639361799439982
764.2192351541502,0.00016851973842485973,5.047011145663154e-09,0.00016851469141371408
787.8273560223373,9.589854317786533e-05,7.657379105546736e-07,9.513280526731065e-05
816.5889439294183,0.00018453871871302352,9.634431585135735e-07,0.00018357527555450993
850.7000893386801,0.0001607375401083612,3.293764042561879e-07,0.00016040816370410503
879.6474271098209,0.03678043186969432,0.024214984282066768,0.012565447587627548
888.2471788110464,0.00033230360749155884,0.00019116367854873567,0.0001411399289428232
905.4502201849745,0.03497308160579581,0.024744810320312952,0.010228271285482858
908.3486379496521,0.03325172091728671,0.02025706789715704,0.01299465302012967
927.6155678259712,0.00020499524860980272,5.731427892785078e-08,0.00020493793433087486
938.4478004774606,0.011271077497063391,0.0072108214957935365,0.004060256001269856
966.7208991065232,3.853079835342704e-05,3.131145127958345e-07,3.8217683840631206e-05
1002.2787600624416,0.0004393438992516944,0.000247687817168594,0.00019165608208310042
1003.9854426421344,0.00014638675034148098,4.812635186211576e-06,0.0001415741151552694
1007.2549876290642,0.00041334516950175353,0.0003602908124447835,5.305435705696998e-05
1018.3397292563536,0.004932161013454097,0.004783606442324497,0.0001485545711296007
1026.7753981482917,0.0025121716642029757,3.417083029801335e-05,0.002478000833904962
1037.227776744228,2.5563905158133643e-05,6.14520285068791e-06,1.9418702307445733e-05
1039.6131998605033,0.016222512181177037,0.01084193319572051,0.005380578985456526
1049.379611781946,0.001722170370062366,0.00027208258095045467,0.0014500877891119113
1060.7242082111995,0.011669194067967837,0.002155995092166571,0.009513198975801265
1062.596305210122,0.00034157800065089805,2.831862294208419e-06,0.0003387461383566896
1067.4192106858925,0.039764917709297874,0.010429431685766892,0.029335486023530984
1074.1978069602958,0.002257132235983191,0.00024363123707604102,0.0020135009989071502
1083.4365752465774,0.007713992002179033,1.6212134437646325e-05,0.007697779867741387
1087.2680584634213,0.06604144280520192,0.00191198602919286,0.06412945677600906
1088.8241440489448,0.0795326395165229,0.0003246370926487863,0.07920800242387412
1090.2393330631262,0.0004894603651004004,0.00017669939420348585,0.0003127609708969145
1092.5295511540824,0.0013254259609973699,2.8494304983735046e-05,0.0012969316560136348
1092.9703366416015,0.005743803332556432,7.375964751760075e-05,0.005670043685038831
1104.359696501603,0.0038291301040286724,6.360682036046752e-05,0.003765523283668205
1134.043927830865,0.07510586279822741,0.03804249840547912,0.037063364392748294
1141.0864820993525,0.02871525621211353,0.020879398425000723,0.007835857787112807
1142.8149986845606,0.004104412394926038,0.0006355095212686139,0.0034689028736574245
1158.2336635654954,0.3206326047878208,0.18284710115055933,0.13778550363726147
1192.9396128456526,0.005944902635831692,0.0015441514471520406,0.004400751188679651
1204.0296640672009,0.016655148636760788,1.1705683572202386e-05,0.016643442953188585
1205.2917560367928,0.006543727119045889,0.0043996140349243,0.002144113084121588
1217.307642307101,0.0011847870788654529,9.240727388931058e-06,0.001175546351476522
1218.6943516589467,0.0006577905821807041,2.098763258289773e-05,0.0006368029495978064
1236.433966008387,0.0004368434939792671,5.146555401563317e-06,0.0004316969385777038
1239.0797175512223,0.0005870675161246327,4.945483531849629e-05,0.0005376126808061363
1256.6554468871375,0.0009633365744452937,1.6259360429987603e-06,0.000961710638402295
1259.7341780792453,0.00033261711564785203,7.808887387815826e-06,0.0003248082282600362
1276.284262949297,0.0002000553722509616,2.1234168329274955e-06,0.0001979319554180341
1280.1717848360538,0.0004822790933364268,2.2545458838050166e-06,0.0004800245474526218
1291.7198131612392,0.0041646205518311875,0.0016990981669250452,0.002465522384906142
1294.037841302518,0.002324054033671626,1.8101979381719174e-06,0.002322243835733454
1301.6941134443775,0.0008212619301784852,0.00046541876129094944,0.0003558431688875358
1308.8045818102337,0.0005449126128776221,4.487678695036502e-06,0.0005404249341825855
1320.276098974213,0.026512678510864435,7.538065918884512e-06,0.026505140444945553
1322.379543640888,0.0012272848103303008,9.28347442202798e-06,0.0012180013359082728
1324.180035590041,0.19170414004154832,1.1675946872368628e-06,0.19170297244686108
1326.820923619439,0.0016936641337079994,2.2444611231187332e-06,0.0016914196725848808
1329.5965300424004,0.00038018119971794167,4.369153341787547e-06,0.0003758120463761541
1331.9823971110316,0.01927973355800839,3.951973287989692e-06,0.0192757815847204
1335.320354086351,0.00039138099747385003,2.3740085949172474e-06,0.0003890069888789328
1336.3516898121095,0.0002009223513236934,4.233805296495282e-07,0.00020049897079404386
1337.687302323935,0.0038462424269154745,0.00011904356957737685,0.003727198857338098
1338.598730225753,0.0004203870773190751,1.1203034201246997e-05,0.00040918404311782815
1338.77054251576,0.002975522441871942,4.445123377616263e-06,0.0029710773184943255
1339.2205986081856,0.029246834795733426,0.00011025179577236204,0.029136582999961063
1346.26696706965,0.0011717081895446574,0.00012916091296347337,0.001042547276581184
1364.8448537041563,0.0009271004776000423,4.460498706804071e-05,0.0008824954905320016
1382.898585209864,0.00021711783945499227,5.230724973647482e-05,0.00016481058971851744
1397.627467652709,0.0009058506576727017,5.779747440192957e-06,0.0009000709102325087
1408.660574015607,0.0005114072937379295,7.354154056337835e-06,0.0005040531396815916
1412.694885553536,0.0012519940407551954,0.0007584460738917072,0.0004935479668634882
1415.651712073635,0.0011824046476371962,0.0009093213491566561,0.0002730832984805401
1416.5115885564262,0.0020257004784699174,1.5279774021170848e-05,0.0020104207044487465
1419.988509519404,0.014879195933140238,1.9394033150825378e-05,0.014859801899989413
1420.5845125206276,0.00034301260447147343,3.84597776070367e-05,0.0003045528268644367
1421.6317417549897,2.0282166496885614e-05,2.8530628358917087e-06,1.7429103660993904e-05
1423.0911134253884,0.0013553853665338974,0.0002664422995436895,0.0010889430669902079
1434.7914731598496,0.008186742156282895,0.004288739172498956,0.0038980029837839395
1460.6712342135659,0.014363817550971776,2.4139750194108258e-05,0.014339677800777668
1479.8877500218555,0.00031421420848720867,1.4249340752484455e-06,0.0003127892744119602
1480.0458637391193,0.000521920758969369,0.00010802326609189612,0.00041389749287747287
1481.1781425740928,0.0009452188156937168,1.0822829890653601e-05,0.0009343959858030633
1481.4810831655807,0.013441013474089094,0.00042009946231092186,0.013020914011778172
1483.162336766606,0.0010637330251041114,2.3972145300680196e-05,0.001039760879803431
1483.4420559704984,0.0031146480892200114,0.0012965412088388134,0.001818106880381198
1485.0611475504859,0.32805626956057715,0.028275874380521353,0.2997803951800558
1485.7283257986928,0.010809655814593233,0.00036944830098331686,0.010440207513609917
1488.2328159018637,0.028649936060722844,5.5295208837151475e-05,0.02859464085188569
1488.7634630757095,0.054830520330025834,0.008011812472005355,0.046818707858020475
1489.9301438429898,0.016318667521295984,3.362101381554145e-05,0.016285046507480444
1491.3292776557,0.0014306391264091193,0.0001346624609843327,0.0012959766654247866
1493.7436258499959,0.024879729635078437,5.3067540284389105e-05,0.024826662094794047
1493.7452576297583,0.02674646113077659,7.253219875166023e-06,0.026739207910901425
1494.6017619752504,0.00740555956976691,0.00043482038710128065,0.006970739182665629
1497.9078303055378,0.0005526054301424185,0.0003009241938400217,0.00025168123630239683
1501.0184595853236,0.0026523865904921513,0.0001975975249580121,0.002454789065534139
1503.6665900672283,0.000868906466686014,0.0004313224151362657,0.0004375840515497483
1505.5691217744136,0.0013410316224478067,8.496236308132433e-05,0.0012560692593664824
1506.432136523494,0.001300278839879669,5.171529819893819e-05,0.001248563541680731
1506.542608815067,0.00037535567806747246,6.760401716737885e-05,0.0003077516609000936
1813.042982030156,0.02651671113073075,0.02032029835359529,0.006196412777135464
3021.001647565773,0.03259767411763288,0.032247380242477634,0.00035029387515525003
3021.2567094142432,0.07974914776686458,0.07640954194962357,0.0033396058172410026
3021.5211068536564,0.09793095225106573,0.09442977919480587,0.0035011730562598572
3022.09677940194,0.009775224939645305,0.006393058808842882,0.0033821661308024234
3023.0034889794274,0.20427345992439688,0.1949001322848559,0.009373327639541002
3023.9330119314563,0.00884518502025819,0.006529846282699128,0.002315338737559062
3024.3605590146667,0.27245800720045266,0.2590799746838182,0.013378032516634452
3025.3516390908994,5.616841085238954,5.540993941987797,0.07584714325115606
3026.918362600129,0.1151271662884217,0.10799596421428444,0.007131202074137266
3030.2008612974632,0.05032457505886375,0.04630499752145182,0.004019577537411933
3033.6402053380016,0.05388736248520039,0.04826417452305409,0.0056231879621462914
3036.896894674796,0.07797135291594835,0.07185233804488766,0.006119014871060693
3039.4587982987514,0.06572180843015693,0.05498672340506918,0.010735085025087753
3041.020537817304,0.3756219015966944,0.34002132713767386,0.035600574459020554
3042.8080642253653,1.739173396450723,0.0003495603251994915,1.7388238361255235
3043.4460544601384,0.039976323099484325,6.479431852108142e-07,0.039975675156299115
3044.4331709806916,0.6361126246391574,4.008354267650406e-06,0.6361086162848898
3045.982558221348,0.013423652107044588,0.00022004411543172778,0.01320360799161286
3048.571384747402,0.1063312278521883,3.6827187742295955e-06,0.10632754513341408
3049.764909678797,0.9148968269346653,0.9075806156932401,0.007316211241425225
3052.0541469206,0.0024817949120126306,4.731574551750944e-05,0.0024344791664951213
3053.536187670253,0.8932474901312543,0.883277960080746,0.009969530050508272
3056.5028951641716,0.05036476470714422,9.512302425695012e-05,0.050269641682887264
3059.1082901075933,1.0644681040524706,1.0487723025509146,0.01569580150155599
3062.2824504000655,0.013380592930947613,4.933495442690433e-07,0.013380099581403343
3066.8238819370376,0.5886499917291429,0.49764798372351493,0.09100200800562797
3067.5783272833423,0.006877780212499993,0.005337571733085438,0.0015402084794145555
3068.114831017739,0.05974862148647363,8.365548069755218e-06,0.059740255938403874
3073.594483757276,0.013559299406115836,6.617907462755408e-06,0.013552681498653081
3078.627444242662,0.06403067025402626,2.4144483707129453e-05,0.06400652577031912
3083.1927746789333,0.0021031904783959544,4.582954764137632e-05,0.002057360930754578
3087.1088626009205,0.057388421943570744,0.0001267124812335392,0.057261709462337204
3089.62876083725,0.026499656600902543,0.0009748694572682364,0.025524787143634306
3091.17874007658,0.1800161543380329,0.0004500516397624489,0.17956610269827045
3091.93587010799,0.49034092278290464,0.4289503716201045,0.06139055116280011
3104.1478683853775,0.44264247703413784,0.0013810600361700844,0.4412614169979677
3111.056612428717,0.0011152035079349293,0.0004595143469477095,0.0006556891609872197
3112.6690047123125,0.12845863589319542,4.319794621512293e-06,0.1284543160985739
3120.9756148293613,0.4102707998672794,0.06301103174102603,0.34725976812625337
3121.775493633865,0.043650117744827216,0.018330209273675076,0.025319908471152137
3132.807006947369,0.3686012537737995,0.06207525979108518,0.3065259939827143
3145.4878713121693,0.14060562266750445,0.009523921925505422,0.13108170074199904
