frequency_cm1,total_intensity,isotropic_intensity,anisotropic_intensity
1.0949671100506757,0.0,0.0,0.0
0.9998485280463525,0.0,0.0,0.0
2.9494495946861126e-05,0.0,0.0,0.0
2.731342994877419e-06,0.0,0.0,0.0
5.189173916446221e-06,0.0,0.0,0.0
1.7960200891756997,0.0,0.0,0.0
17.25440400711438,0.0068972752270627935,6.916166933627674e-05,0.006828113557726517
28.981108404481777,0.017294335673413288,0.0017923081593288182,0.015502027514084471
35.26781554840379,0.031587495096279956,0.004016474988104714,0.02757102010817524
43.43585779740415,0.0026272113699369226,0.0005296268600720106,0.002097584509864912
64.69970010705718,0.014403381318325269,0.0037343621064182568,0.010669019211907011
69.2470065966228,0.0057890188201090344,0.0008362651725917689,0.004952753647517265
88.84505877721917,0.024185861661958435,0.007687801837467428,0.016498059824491006
116.27602918175471,0.0023600443549462178,0.0010038943522589928,0.001356150002687225
126.55906655420823,0.04231977500224672,0.014797340043414368,0.02752243495883235
148.32915396023802,0.06109748581577015,0.027914573720702277,0.03318291209506788
160.37815715439746,0.0013793249600379963,1.5088392096051933e-06,0.0013778161208283912
167.06245808120048,0.03572046742777926,0.005414607747306674,0.030305859680472585
211.7763901174245,0.11550543478121145,0.03895066320223676,0.07655477157897468
228.10054807011625,0.0012749067828489989,6.169614925553374e-05,0.0012132106335934652
241.13699789658318,0.010332943791150484,0.006829840289839844,0.00350310350131064
248.27008293472437,0.0005619915314077772,0.0001541962898655837,0.00040779524154219355
302.7582692368784,0.024938474401561453,0.005993245355383878,0.018945229046177573
337.6927349650285,0.0523137241057548,0.01945834521710346,0.032855378888651345
383.0981841548623,0.013138228296505999,0.0005525302887983692,0.012585698007707629
408.15434780869396,0.020335402490814974,0.00824449265868461,0.012090909832130365
420.0699232908743,0.04877372503091523,0.016978071487584786,0.03179565354333044
428.53291788411116,0.0057035545657440345,0.0015314044331108845,0.00417215013263315
460.60944758372426,0.016646493417324378,0.007346377758227795,0.009300115659096582
472.09365412345494,0.00437405296070448,0.00034526113968307617,0.004028791821021404
509.622593380107,0.008062102091501612,0.0003143438643474795,0.007747758227154132
531.7245646877041,0.028885216135165162,0.015536723364919952,0.013348492770245211
545.012179251165,0.0025346977913679857,0.0007098528357676619,0.0018248449556003236
569.4112585418968,0.014576483526290967,0.000577386198758374,0.013999097327532593
578.1315040525669,0.005292122591530583,6.042861644601914e-05,0.005231693975084564
608.2958808645039,0.02338252639404406,0.0172526386017641,0.0061298877922799574
649.6277066618809,0.048375112079874695,0.0011098273367322103,0.04726528474314248
666.6240509639105,0.014908886941035133,0.0007231981494399703,0.014185688791595163
740.3537933726947,0.1189191584457858,0.0718425927695998,0.047076565676186
745.6565113786639,0.001285048963970094,0.00023702818109802868,0.0010480207828720653
750.9504566886834,0.02076537642752677,0.008104953250122244,0.012660423177404526
760.9312249483866,0.01828102553592593,0.009519429835157293,0.008761595700768638
822.6405514329562,0.00042955225737205697,0.00014840814813382345,0.0002811441092382335
825.7760420512112,0.11468021033583911,0.0958555820405602,0.0188246282952789
845.2466101459337,0.0023973584880260406,0.00016710223410049783,0.002230256253925543
852.8977059388419,0.07163118691824515,0.03560581690536863,0.03602537001287651
864.5118269211578,0.006611903178408948,0.0008289268659597512,0.005782976312449197
872.6342502286808,0.026776267892421952,0.0005184838488480755,0.026257784043573876
873.4554079270546,0.031132336312379067,0.02455616765102387,0.006576168661355197
919.0771159721015,0.09008404721248221,7.111474964049384e-07,0.09008333606498581
926.2265742802629,0.08407257583941988,0.06952888452959839,0.014543691309821478
960.9844153672534,0.001212161188088163,0.00010880734016152929,0.0011033538479266337
983.8942311631546,0.018979653250933877,0.00785442317385479,0.011125230077079086
995.2015770409845,0.0036156994967102268,0.0004216837032566199,0.0031940157934536068
1006.7273851738437,0.04706882487010938,0.018008221596324096,0.029060603273785287
1008.0808175034394,0.0009905713835864365,0.0004003574798601103,0.0005902139037263262
1032.1301814492665,0.32360015942968634,0.1324135226752344,0.1911866367544519
1033.8908363645428,0.020459643579640068,0.004211442681884755,0.016248200897755312
1041.8285678830061,0.005443087276870614,0.0014896819571283918,0.003953405319742222
1044.9572646631962,0.012809397488055464,0.009432135053484435,0.0033772624345710296
1086.8771962006308,0.023641526485221172,0.0003344950778894487,0.023307031407331723
1094.7304755716775,0.029018079652731916,0.0018042857193663752,0.02721379393336554
1137.5938112202775,0.00815756061589207,0.001016118450344042,0.007141442165548028
1142.991377162467,0.016457189517935903,0.0024503536539622413,0.014006835863973662
1153.3464396926493,0.10995663885276813,0.07299975202198852,0.036956886830779606
1185.0531899288071,0.0014159007053806678,9.741342837519947e-07,0.0014149265710969158
1193.465416880889,3.448809297653801,1.8454022679958064,1.6034070296579948
1198.4315170429436,0.022639466293531064,0.011021098463667401,0.011618367829863663
1231.889551866912,0.05030778949800122,0.007842724212008262,0.04246506528599296
1234.156897239719,3.4694615278095604,1.672256736943314,1.7972047908662465
1251.9294600622475,0.005157504471996506,1.1300676105337952e-05,0.005146203795891168
1282.0927530012696,0.01920799474162948,0.00889542564214458,0.010312569099484897
1290.289615883594,0.012243836255456369,0.0005123167063145038,0.011731519549141865
1295.0171902250804,0.036502336154147816,0.023251037113926107,0.013251299040221712
1305.2823440637005,0.02929057229639316,0.0045630316014064615,0.0247275406949867
1320.5380550298996,0.012021914218827047,5.436002597085958e-05,0.011967554192856188
1326.2929354791015,0.6607252321635397,0.3061298898951365,0.3545953422684032
1328.358171903707,0.042153439439281085,1.6379353612115186e-05,0.04213706008566897
1332.6068922824695,0.01259785703543081,5.266115077241817e-05,0.012545195884658392
1343.460982401758,0.7647429240423526,0.35550390503851215,0.4092390190038404
1390.3071271552337,0.015476966947973746,5.755842602852272e-06,0.015471211105370895
1413.9080883035408,0.03432128834212093,0.024488610242047622,0.009832678100073306
1415.4884035478722,0.003888233717870177,0.0025643074089036215,0.0013239263089665555
1436.8204479973365,0.012196382006359033,0.002366937436246723,0.00982944457011231
1459.465420657047,0.026413360348526434,0.0066395935381626655,0.019773766810363767
1474.742896944959,0.13416311030350073,0.05702491175767085,0.07713819854582989
1485.1591173896352,0.06086945912096624,0.004576095371762788,0.05629336374920345
1493.0955751144734,0.0019420523541383147,0.0005663190755956126,0.001375733278542702
1495.7390731456794,0.029902229810966872,1.3909290010206156e-07,0.029902090718066772
1503.7272890972124,0.01496638688606068,8.89873479476523e-07,0.014965497012581203
1516.6629771945118,0.012605677522632974,9.65173406702642e-05,0.01250916018196271
1555.303954310259,0.5806387613881413,0.24207535312624517,0.3385634082618961
1568.0308359565267,0.0574157518764105,0.014204060057584964,0.04321169181882554
1638.2282392770453,0.09651355211846557,0.025978643470518127,0.07053490864794744
1652.6774678990664,0.318434378732958,0.13954728982209125,0.17888708891086677
1678.3295729506167,18.507848924503055,6.667353284440146,11.840495640062908
1689.0468128073012,0.11932841347696181,0.08073510246102215,0.03859331101593966
1748.0694080394558,10.460912551254935,4.4966942125682845,5.96421833868665
2392.0664507513306,4.509937145321798,2.0846395805138367,2.4252975648079613
3023.064002277853,0.4308810915290483,0.41486236784378466,0.016018723685263664
3040.6556581777995,0.9964787238855252,0.952303220345366,0.0441755035401592
3047.1963618442815,0.25691218901601043,0.16766523409748005,0.0892469549185304
3053.3048990482494,0.704347928162693,0.687003253071953,0.017344675090740017
3063.6538883750004,0.4821245712777487,0.45568352805637163,0.0264410432213771
3064.5757747818616,0.3677126963389769,0.0002006623792522771,0.36751203395972465
3070.729177113416,0.2705197578412785,2.0006944531532172e-05,0.270499750896747
3108.5469440412985,0.0009811099981124186,2.034440928040297e-07,0.0009809065540196146
3120.223795239816,0.17756289814533746,2.343928272154087e-05,0.1775394588626159
3127.0072627573795,0.42927418227161723,0.06147068349240508,0.36780349877921215
3193.0152016466986,0.2689625263645631,0.03999556796592958,0.2289669583986335
3214.0569565513083,0.13723320647379691,0.00871085499597898,0.12852235147781793
3216.418214504981,0.3195337207880703,0.029814135372820023,0.2897195854152503
3217.651474053887,0.1613342004779531,0.0012355068751507055,0.1600986936028024
3225.203960340232,0.6626192751370075,0.4051954557926906,0.25742381934431685
3230.546420111696,0.22216196556098303,0.14607521830109535,0.07608674725988768
3232.7169152917845,1.0455617253714984,0.8250242219579873,0.2205375034135111
3238.6465086489043,0.574292084830526,0.4094346446265676,0.16485744020395834
