frequency_cm1,total_intensity,isotropic_intensity,anisotropic_intensity
2.5586505364852405e-05,0.0,0.0,0.0
1.1710642893640045e-05,0.0,0.0,0.0
1.8281943270064976e-05,0.0,0.0,0.0
0.7633602306010809,0.0,0.0,0.0
1.0727058090359258,0.0,0.0,0.0
1.5504822934419755,0.0,0.0,0.0
9.757287051360198,0.001428146709589744,1.1477959454231961e-06,0.0014269989136443209
17.98054955010249,0.0017597049858831958,5.3800198396617265e-06,0.001754324966043534
26.957970426957957,0.0008001296266346464,9.743936163534939e-05,0.000702690264999297
31.126293930211034,0.0019694358049981314,9.091258153715139e-05,0.0018785232234609802
47.741645098267064,0.0012089000016470635,2.5279140214555508e-05,0.001183620861432508
53.218530411336225,0.0011413439955935511,2.1751670580438595e-05,0.0011195923250131125
58.06724207457055,0.0012549326807175854,3.008517665236491e-05,0.0012248475040652206
64.64253333350405,0.0008367280771883203,7.904789331867225e-06,0.0008288232878564531
66.54429222588831,0.0005511841583117641,0.00011506639638875571,0.0004361177619230084
75.23342383241267,0.0006617790187257745,6.511324093574092e-05,0.0005966657777900336
91.59212942582273,0.0007455058802589751,0.000150632141677836,0.0005948737385811391
105.27904764649597,0.0008125444269327112,1.8866809306115086e-05,0.0007936776176265961
117.82431034295676,0.0009220678915079345,7.215868776767947e-05,0.000849909203740255
130.52579990629343,0.0005720303458404195,0.0004478198709874077,0.00012421047485301187
136.12669989772948,0.00044329603122387833,5.7183456097608586e-05,0.0003861125751262698
149.07166151967425,0.000611000455013402,9.618127998667678e-07,0.0006100386422135352
158.77205898089287,0.0004907481871157274,2.8184073951781412e-05,0.00046256411316394593
196.57549475769875,0.0018487507893546402,6.264348064624522e-06,0.0018424864412900155
213.9846591817637,0.005662618927101596,0.005088300355051193,0.0005743185720504038
228.4039790006614,0.0003612978487003842,5.755042772791748e-05,0.0003037474209724667
234.58512316570057,0.0015501602894189871,0.0009778165021474257,0.0005723437872715614
240.64498818366536,0.0004586092278445566,0.00030970566143988243,0.00014890356640467417
244.02590142325917,0.0013966283506543988,0.001306989790347475,8.963856030692381e-05
253.45492535929478,0.0010300700788312498,6.715841618297287e-05,0.0009629116626482769
272.8009094215371,0.0018304028300861292,0.0010917330242145064,0.0007386698058716229
286.5270714508316,0.006636422546294781,0.006259614548141093,0.00037680799815368677
305.7588431662488,0.004270770162424387,0.003976409567184599,0.0002943605952397887
313.7012454625169,0.024720966297706835,0.016558769808148202,0.008162196489558633
314.160533820598,0.0036636182927634246,0.00013143660339510552,0.003532181689368319
357.1602272564563,0.009338626892402242,0.005800202022429304,0.0035384248699729384
370.10528725935137,0.0013947431341389976,0.0004437029196965822,0.0009510402144424154
409.480050701673,0.007593589616879066,0.005238970829769662,0.002354618787109404
429.41323596970034,0.006486785074712117,0.002099722310488422,0.0043870627642236945
461.90735026007604,0.003392939878985148,0.002886763802243005,0.0005061760767421427
468.6780919552576,0.003747566701372118,0.00030131421760860297,0.003446252483763515
489.77604940053425,0.003244638934053308,0.0003088417102729498,0.0029357972237803584
503.7512921144266,0.002303646313048014,0.00032007332617144433,0.00198357298687657
569.8027226160331,0.0037461701970816445,0.00012865005063617354,0.0036175201464454707
577.2290030637599,0.010774439635160355,0.00491898130958686,0.005855458325573495
724.992647266961,0.0007374869174933972,0.00023324550081332102,0.0005042414166800762
732.0682599991673,0.0011370253907649515,0.00039093778441402674,0.0007460876063509248
771.0308463222461,0.009835359859295612,0.008570908133796636,0.0012644517254989766
780.6333106418217,0.00036536620376371814,2.226045102272432e-05,0.0003431057527409938
784.2082647534932,0.00860831446476501,0.007252787311406891,0.0013555271533581183
785.918826960715,0.004378398496692067,0.00033461687042891675,0.0040437816262631505
817.2330897481897,0.025620502986475138,0.01675387061425652,0.008866632372218616
853.5487890266761,0.02686917810957748,0.01773355246042748,0.009135625649149999
862.3595718061985,0.019057749195665614,0.012794238406553625,0.006263510789111991
889.3260726864441,0.04125597090531326,0.027675982264734597,0.013579988640578657
911.1821755883714,0.03885005744100019,0.014635094354404942,0.024214963086595244
913.629993993963,0.03991748600822527,0.02733512493343803,0.012582361074787243
916.0768489473277,0.026805619722994303,0.0213289092087724,0.005476710514221904
919.5366258005312,0.007545786574865115,0.0004960530846773534,0.007049733490187762
950.3695657010154,0.00853706748604827,0.0027856541612784353,0.005751413324769835
965.1438565472063,0.01124683157389451,0.0032764151135607,0.00797041646033381
996.3973056173053,0.025262850976654767,0.011214871420871101,0.014047979555783668
999.5753436318305,0.008433306794531557,0.0005220189660423666,0.00791128782848919
1015.939848375885,0.041064840925446384,0.0056236457384668675,0.03544119518697952
1023.3164659466693,0.004126258983317883,0.0030771101506678602,0.001049148832650022
1042.7587932020856,0.02472690618881429,0.015023241099423506,0.009703665089390785
1048.4075086003688,0.015398057440174806,0.008771506896687943,0.0066265505434868624
1055.2140993898893,0.008279719704997777,0.003247753910058578,0.005031965794939199
1060.3093736350615,0.019524878916808267,0.0022310706242494012,0.017293808292558867
1064.415093052524,0.014027579946464964,0.006248789723766599,0.007778790222698365
1067.4544685869,0.009138055433281275,6.591820116423631e-05,0.009072137232117038
1089.1748869818355,0.025470261189495722,0.0007722638442788265,0.024697997345216896
1090.438497929745,0.03788351717945103,0.014835170723780343,0.023048346455670683
1092.2706823782319,0.038134431007918294,0.0002376962101963099,0.03789673479772199
1104.9422188156768,0.0024811858113841768,0.00024051580619973136,0.0022406700051844455
1110.087361569635,0.018154815089235866,0.014974283997756467,0.0031805310914793977
1130.812086868347,0.020156521297728776,0.009774051466137492,0.010382469831591284
1156.731237181368,0.08350277102825591,0.03960324938865239,0.04389952163960353
1165.1824776909848,0.03344529641588368,0.008673841286969554,0.024771455128914127
1178.6297037899658,0.027098104059347726,0.018175695638813202,0.008922408420534525
1181.5143073708628,0.034694653810741535,0.018540445822506683,0.01615420798823485
1182.593389354188,0.010117258587818903,0.0013367995736536574,0.008780459014165246
1190.0008280853287,0.014311093083301824,0.007709899844132096,0.006601193239169728
1234.1001210662293,0.005623799886274966,0.0011014273678377196,0.0045223725184372465
1239.8022617676945,0.0043855824788622535,0.000411294246794031,0.003974288232068223
1264.563189499133,0.009103322598361796,1.534371123819276e-05,0.009087978887123604
1266.0250899453506,0.003875353174498486,0.0005349375469720752,0.003340415627526411
1284.9398736568896,0.004603749963547965,0.0007465612270318847,0.003857188736516081
1285.7693337440523,0.0027759605179032533,0.002225902858708777,0.0005500576591944765
1303.2807205706752,0.04509679624576722,0.01309169577648571,0.03200510046928151
1308.4973043841567,0.0028472051443020493,0.001784202688044178,0.0010630024562578713
1309.6210101460074,0.03701014151312781,0.022106153651507497,0.014903987861620309
1323.3707132086736,0.023538669671653346,0.001082979469410588,0.022455690202242758
1325.3039434345285,0.016931057810454668,0.011966946528817336,0.004964111281637331
1332.039765710387,0.019624908242294077,2.0358688292165878e-06,0.01962287237346486
1333.9491302999052,0.015138676706350296,0.00022524373313169597,0.0149134329732186
1335.9642365060436,0.03370059247181482,6.721162581522927e-05,0.03363338084599959
1347.2340246136148,0.030061294593205716,0.0004173095904559612,0.029643985002749756
1349.9111306632149,0.016325805261486654,0.0011522307423550906,0.015173574519131563
1369.8952534701095,0.01616816534545005,0.0020405880584430255,0.014127577287007025
1374.3263346602323,0.007168533542172444,0.0011240041811291556,0.006044529361043288
1383.2860720609935,0.006804874001969509,0.0005297892815374926,0.006275084720432016
1399.5740402333145,0.009124366261662608,0.00033330763622730784,0.0087910586254353
1405.0053087459269,0.0098271883602071,9.962242434044878e-05,0.009727565935866652
1413.7215196706436,0.0009319009502112227,0.0004293036301466717,0.0005025973200645511
1413.938777872026,0.0010003081989348199,0.0005648797119958119,0.00043542848693900796
1414.3268208255572,0.005165924139381729,0.000983486407931379,0.00418243773145035
1416.21166376518,0.0036544191494767703,0.00010765507037798907,0.0035467640790987813
1421.7713724936566,0.003372467910292447,0.00012359602949541155,0.0032488718807970355
1422.5007383714217,0.005091396217667672,0.000972096725691946,0.004119299491975726
1429.630325892725,0.005258801295253774,0.0004135824978576336,0.0048452187973961405
1436.0354723553462,0.007427874337942453,0.0001885632246861767,0.007239311113256276
1478.4941373538488,0.007901639145261284,0.0003643825268730066,0.007537256618388277
1481.7344658812347,0.023730107023468228,0.001738136370615082,0.021991970652853146
1482.9893586858045,0.06874095724736248,0.0015482960597159034,0.06719266118764658
1484.3607903396753,0.02805338797939373,0.00023301029345911364,0.027820377685934615
1486.210489442446,0.03931343748232176,0.0019592271886749663,0.03735421029364679
1487.9769034385733,0.043245475592455236,0.0009278984381868616,0.04231757715426838
1493.232978859677,0.02090703958676545,1.17152237728331e-05,0.02089532436299262
1493.6996514685986,0.010786368619163102,1.353975002029504e-05,0.010772828869142806
1493.9768423520804,0.02499410652692819,1.536939924352932e-06,0.024992569587003837
1494.5909973818093,0.027395129774806314,5.291665876059029e-06,0.027389838108930253
1494.90079510213,0.030441754935223157,6.265534604272513e-07,0.03044112838176273
1495.2246527520679,0.01118905981988468,5.255965691906164e-06,0.011183803854192775
1499.4736052558476,0.010689786660072266,2.2104152082763484e-05,0.010667682507989502
1501.921607973706,0.004465239443274967,4.389111025350085e-05,0.004421348333021467
1504.3056264266975,0.0024888099197472317,2.5176823036898136e-05,0.0024636330967103335
1504.647845329184,0.002833233868518395,3.530735254684334e-06,0.0028297031332637106
1508.6865888780872,0.016644313236428145,0.0003807923179435538,0.01626352091848459
1514.559588862335,0.034990568856140714,0.0002657812755017505,0.03472478758063896
2625.6989853788687,0.5701541638217626,0.3460109757439824,0.22414318807778033
3018.4970000110247,0.28964192087778645,0.23445396733213372,0.05518795354565275
3029.947924507149,0.6029139655131914,0.47354818555564926,0.1293657799575422
3031.1585431204403,0.16611342487284655,0.15317896928169616,0.012934455591150378
3032.926266574765,1.3027522720202114,1.0030378201609949,0.2997144518592165
3033.5907017262534,1.0118808460669686,0.9314262057856898,0.08045464028127888
3035.423268563621,0.4414891368314027,0.412901688160183,0.02858744867121968
3041.812864931515,0.19110571807213994,0.1617774893912833,0.029328228680856633
3046.758992277264,0.07977962570945782,0.06048385426141856,0.019295771448039265
3048.973031219461,0.21157671394716157,0.199711808332999,0.01186490561416257
3051.134504786905,0.692328744327699,0.6857593225111319,0.006569421816567089
3051.1508939082637,0.8277646249708783,0.7959906397891836,0.03177398518169474
3057.139698845787,0.9164398354800886,0.8551830474186756,0.06125678806141302
3058.58995672079,0.3769241068803309,0.33861006284833295,0.038314044031997965
3059.333318987234,0.9191800215467618,0.020633209527751748,0.8985468120190101
3059.8790391052034,0.2856301834701077,0.11380506168344783,0.17182512178665987
3061.337528837385,0.10050259454353459,0.07583385702756482,0.024668737515969773
3065.052900515711,0.08404321638015039,0.03623909815116542,0.04780411822898496
3068.0692278914544,0.8834502738381795,0.8355248151140274,0.04792545872415206
3077.055838526259,0.9182775261715175,0.8210572817691235,0.09722024440239392
3078.6298429728295,0.03273878365230679,0.016608600827925226,0.016130182824381566
3082.4222879625936,0.23006541620156012,0.13431253363475773,0.0957528825668024
3093.5787344533983,0.5299138203014904,0.2350091126252541,0.2949047076762362
3095.396482967917,0.0662050187837469,0.008678895721519345,0.057526123062227555
3102.0086514937475,0.1068118407478173,0.016855645875221165,0.08995619487259614
3114.1602931250554,0.12257662473355058,0.0008997908503049437,0.12167683388324563
3114.5687811126572,0.10609387392898267,2.184086549207124e-06,0.10609168984243347
3119.3915670991773,0.2814966445048267,0.005851456084373072,0.2756451884204536
3121.429098951381,0.3071382396865939,0.03685605830997165,0.27028218137662224
3121.4443747138544,0.20884569987244173,0.0357243556568174,0.17312134421562433
3122.8792090325155,0.3911173782623837,0.05581878856546243,0.3352985896969213
3127.3256192331314,0.40483715717296237,0.12068766775258322,0.28414948942037915
3129.5797130654355,0.17478265536992463,0.006760118752594902,0.16802253661732972
3140.6940611992304,0.252162775039345,0.09110932415972815,0.1610534508796168
3143.466766758101,0.0917308764368466,0.002765932698927946,0.08896494373791866
