frequency_cm1,total_intensity,isotropic_intensity,anisotropic_intensity
2.19459717873678,0.0,0.0,0.0
1.7711297748969959,0.0,0.0,0.0
1.6278816778585907,0.0,0.0,0.0
3.999681714808842e-06,0.0,0.0,0.0
2.504331015276309e-05,0.0,0.0,0.0
2.8363594457929434e-05,0.0,0.0,0.0
70.85431306952597,0.0002788902797274205,8.954572885909159e-10,0.0002788893842701319
154.66140976997633,0.0002925058436679371,2.035070660404712e-06,0.00029047077300753236
162.40006046427482,0.001377161954598046,7.784492472848446e-05,0.0012993170298695616
229.05664997504743,0.0003788000396006803,1.0185836468599094e-05,0.0003686142031320812
242.85458488014825,0.0011513202508648744,0.0001792185467991038,0.0009721017040657706
250.06023591186784,0.001550719457349763,2.4647636336821428e-05,0.0015260718210129416
259.6563820844637,0.0010823630937983168,1.9333982475724968e-05,0.0010630291113225918
269.73295006701113,0.0016847972923129402,2.5775121079105444e-05,0.0016590221712338346
274.93898895496204,0.0027250098690828448,3.9980958944515036e-05,0.0026850289101383296
278.0224546646766,0.006381813385099684,0.0016664995289345983,0.0047153138561650855
294.8013608975935,0.004996639570129816,0.0005486313283926593,0.004448008241737157
313.56348282743267,0.0014544693178587477,0.00036513156300600324,0.0010893377548527444
321.7387857279881,0.005847558372513297,7.679159678661316e-06,0.005839879212834636
333.8228079515165,0.0013695937119081565,5.565994759151505e-05,0.0013139337643166414
356.2020082807236,0.0111596750069377,0.0095142995903092,0.0016453754166284994
382.0049667739002,0.004829875141389654,0.0034048581608683895,0.0014250169805212647
390.43592816015,0.0019454297263543814,0.00045738752969716695,0.0014880421966572144
404.69086740619747,0.00012578725012781303,5.9117147119955775e-05,6.667010300785726e-05
427.41487893335125,0.0005274251799892683,1.1776800947371991e-07,0.0005273074119797945
432.02940439851193,0.00017568032646011203,3.88382746690149e-05,0.00013684205179109713
484.96563050864245,0.002279934368017618,8.584954545329785e-06,0.0022713494134722883
509.23982321338434,0.00589224419917599,0.00019671502626207184,0.005695529172913919
537.4300274239936,0.01059694111062988,0.002022361009654498,0.008574580100975383
577.3060146586877,0.09363635332122032,0.08987679424611089,0.003759559075109428
797.3018763755106,0.053064735493929115,0.048638921255964494,0.004425814237964619
804.4577270409371,0.0007346840234505451,0.00038111307069719374,0.00035357095275335136
818.805516854523,0.022364282348151937,0.021619036952859192,0.0007452453952927466
871.8560797869765,0.003088056799566279,0.0001656543487404878,0.0029224024508257914
899.9212261664932,0.009528305485477076,2.4839208957394814e-05,0.00950346627651968
914.6262184406951,0.019143265246361067,8.06584283972455e-05,0.01906260681796382
925.5821083966525,0.007769146173207167,0.0010877752019627172,0.006681370971244449
935.733230093347,0.01110287575518912,0.0020857996949352176,0.009017076060253901
951.2992874499867,0.015429853584090748,3.5138554840818514e-05,0.01539471502924993
955.5809707523557,0.012297115904489345,0.0009300325881093024,0.011367083316380044
976.6031558900017,0.01710718429056318,0.0063833248171054425,0.010723859473457735
996.9909997173932,0.010627227115502388,0.00018907607074666812,0.01043815104475572
1001.3894499455067,0.02372688702804637,0.004627859334064291,0.019099027693982078
1009.6168034474148,0.00910029139482901,0.0010641750820247562,0.008036116312804254
1028.684932580826,0.0009939011957570399,4.688551408485866e-05,0.0009470156816721812
1044.7137276476096,0.0025060564726148682,0.0012148120060530721,0.0012912444665617961
1096.0761129949399,0.033916086853849135,0.003236331159055426,0.03067975569479371
1113.7412807337926,0.04896981783064979,0.002649460772382854,0.04632035705826694
1119.6617843024069,0.0210842575341302,0.000659875520571993,0.020424382013558208
1170.5915026174216,0.014751676351243335,0.0007415903592209985,0.014010085992022336
1186.697966568378,0.012714558687395157,0.0003244802906722234,0.012390078396722935
1231.3650149002199,0.008603895377700484,0.004224486408057393,0.004379408969643091
1248.3756184143958,0.010572925952241916,1.4669253619059246e-05,0.010558256698622856
1256.0405266488003,0.02004698806855658,0.003661709360978379,0.0163852787075782
1260.9801383601537,0.019480474101549104,0.0007984308880769122,0.01868204321347219
1293.225072992127,0.04509835353622735,4.2216893696602355e-05,0.04505613664253075
1303.0828253588218,0.0067249856475112965,1.4088112454268522e-08,0.006724971559398842
1342.0900251117405,0.01203418476453785,0.002656945739500683,0.009377239025037168
1361.7103224797597,0.01973804851752334,0.0002161938180385526,0.019521854699484788
1375.7657272442277,0.011938374500232439,0.0008406128306370956,0.011097761669595344
1384.8553602373665,0.01385170767329619,1.2731457560659869e-05,0.01383897621573553
1394.8184390945048,0.0013259145592086352,4.800722067260813e-06,0.0013211138371413743
1397.7544834106332,0.0016936833517731539,1.69547550004376e-05,0.0016767285967727163
1403.6667115289447,0.015962671158091905,0.00043297093913434133,0.015529700218957564
1405.0418173170183,0.0016660387503059162,3.68179552885582e-05,0.001629220795017358
1415.1463394364866,0.0034721510023038825,2.68935314405124e-05,0.00344525747086337
1420.408378831518,0.0030794825030545695,6.669372866725577e-06,0.0030728131301878438
1469.5319877545687,0.008600855787530039,6.962008873818473e-05,0.008531235698791854
1475.5440020834167,0.01897010382499951,0.00022346112549031721,0.018746642699509194
1483.4418796535356,0.005637778524605772,0.00019793960170324306,0.005439838922902529
1483.8534917646466,0.008452042734899023,8.428685826398534e-06,0.008443614049072625
1486.1646208755556,0.01507907483761256,8.152205522041171e-05,0.014997552782392148
1489.4177568593718,0.01379354703625174,0.0004873078466683383,0.0133062391895834
1490.741369012614,0.035038482883300394,0.0006164355229411135,0.03442204736035928
1493.6378282395515,0.016899810561412595,0.001929508116393575,0.01497030244501902
1494.7956552041558,0.03695762838925389,1.6164842033312175e-06,0.03695601190505056
1496.4860553485544,0.05000996253123124,0.0009830015848689999,0.04902696094636224
1505.2109814743892,0.02178978373604936,0.0003066590773121959,0.021483124658737165
1514.8526063799393,0.0028735959136994386,0.00013504450940304139,0.0027385514042963972
1517.5935644660724,0.009190078723636773,4.3281541114628604e-05,0.009146797182522145
3034.343476277946,0.14070103551764812,0.03392794508195083,0.10677309043569728
3043.9049625084904,0.17056937548741785,0.12023003764081122,0.050339337846606644
3046.613731213771,0.06515802234130111,0.03316046188176289,0.03199756045953822
3047.7402745375452,0.35836445921429555,0.33071007512913375,0.027654384085161795
3051.32255572528,0.5979423220149319,0.5509884139452556,0.04695390806967634
3053.212448128121,0.05451524283593997,0.010478646129143739,0.04403659670679623
3055.646380057148,1.9454332767815143,1.8795703573524292,0.0658629194290852
3062.55189628479,1.9174622564179085,1.8909767853241228,0.026485471093785618
3086.220923954258,0.1845994875389808,0.0915846096916343,0.09301487784734652
3095.5587320510926,0.09829225530949415,0.037299161447988345,0.06099309386150581
3104.093015190307,0.13267923161704498,0.025628814069197075,0.1070504175478479
3104.963459475147,0.07237111432911039,0.0006922477849327796,0.07167886654417761
3109.3917785064205,0.4311920760674981,0.0013722513191597701,0.42981982474833835
3109.625186677827,0.13225126437412826,0.008162964897954504,0.12408829947617375
3113.3145361420434,0.604045909118629,0.0005541282520799352,0.6034917808665491
3117.2639118364323,0.34478478471563057,0.0263949792434737,0.3183898054721569
3120.948932387065,0.2646668882162037,0.0008023538919758343,0.26386453432422785
3135.61454490693,0.24101794177819802,0.010747675320865997,0.23027026645733203
3137.6840720268206,0.18809071140341116,0.00377070147972425,0.1843200099236869
3142.3506900497177,0.18960283567980393,0.009291596273788304,0.18031123940601562
3151.580889744171,0.19824137177652223,0.05173990657004491,0.14650146520647733
3858.199663985189,0.30513560458120215,0.18928723221700489,0.11584837236419726
