frequency_cm1,total_intensity,isotropic_intensity,anisotropic_intensity
1.970247483476573,0.0,0.0,0.0
0.9483070122105333,0.0,0.0,0.0
2.1287288460965717e-05,0.0,0.0,0.0
8.999997232747963e-06,0.0,0.0,0.0
3.520891851949356e-05,0.0,0.0,0.0
1.5920161326483149,0.0,0.0,0.0
35.03333423737782,0.022399822909091184,3.7631258998966194e-05,0.022362191650092216
51.33338961672283,0.0032807938039226894,1.0467738806962812e-05,0.0032703260651157267
57.32449169032159,0.006773768245542609,5.624485218701831e-05,0.006717523393355591
67.39247955228437,0.01297409463441522,7.757085309904305e-05,0.012896523781316177
96.08131110316111,0.0009376190609386419,1.4317360454892052e-07,0.000937475887334093
124.9436380960184,0.006686191220801675,1.1611992735545027e-05,0.00667457922806613
185.90937312064443,0.0012820018023493235,0.0009788712636466866,0.000303130538702637
227.08950118427185,0.002062420946845647,2.057986622909466e-06,0.0020603629602227377
238.01439863138552,0.007421803282530942,0.001229849401836343,0.006191953880694599
276.9383324624313,0.019872892154355608,0.016708826538177058,0.0031640656161785493
296.1121320081831,0.003396733378788132,0.0011254220195861563,0.0022713113592019753
326.3020981689192,0.0012796871894403422,5.941353700368233e-05,0.0012202736524366598
363.0709164559175,0.006286401054246243,0.0017534335366470592,0.004532967517599185
417.2621274838768,0.00011191386368801943,4.931929294204192e-05,6.259457074597752e-05
433.27696239989984,0.008420133610471425,0.0069276850735931865,0.0014924485368782384
439.73739584551316,0.005770736173995808,3.93427915774947e-08,0.00577069683120423
475.4249415058611,0.00218661477121806,0.0010912786023635215,0.0010953361688545386
515.529348494972,0.0011974502688450485,0.00010277158123470338,0.0010946786876103452
546.6674187405182,0.0036478236214217744,0.000135841843570242,0.0035119817778515323
609.1317458085232,0.004859560666153717,0.0006221367398221128,0.004237423926331604
628.700902101895,0.0026324588671949594,0.0003556912207279839,0.0022767676464669753
634.2168694286137,0.015948288931753048,0.00022946219514021808,0.015718826736612828
651.4635501207374,0.017977761478907797,0.013902613391821618,0.004075148087086178
723.6269799566973,0.0003390221623986139,0.00015104253123686447,0.00018797963116174942
756.2714073576137,0.006650065981853431,0.002302648998712603,0.004347416983140828
784.7558834525724,0.006856804826033911,0.0016666285307064862,0.005190176295327424
799.1789682257275,0.0014098069863833142,4.252582206150191e-06,0.001405554404177164
819.3747152241427,0.07285860655682472,0.06581564748656754,0.00704295907025718
857.3770962803986,0.02703805469071887,0.015553388958493522,0.011484665732225346
874.4784636303667,0.003259713952798537,0.00030360202538344105,0.002956111927415096
886.8043370230579,0.044809471328136195,0.042319280662403334,0.002490190665732864
902.1140680610396,0.004785583504099779,0.0007391641275436828,0.004046419376556096
914.0993390046293,0.003944664794035884,0.0022330793108285138,0.0017115854832073704
917.1171303147192,0.0030226968425107535,0.0021914281342727284,0.0008312687082380252
949.337009511514,0.002099176339885049,0.001746417978308179,0.0003527583615768698
959.3011770474756,0.003873381773429883,0.0011459436587436353,0.0027274381146862475
996.2206130119275,0.02122739604485034,0.01937587031169063,0.0018515257331597093
1011.0103376470767,0.0005206112875353736,0.00022387048009398685,0.0002967408074413868
1027.1721726796998,0.12879452496987323,0.11437313686028096,0.014421388109592273
1029.9766015565142,0.007749340886048646,0.00691496994257302,0.0008343709434756263
1059.59062658759,0.0531197101674135,0.004649221552280658,0.04847048861513284
1066.4573415055447,0.10974201448651805,0.09440445702039477,0.015337557466123287
1073.8590571939194,0.019341762591797818,0.0006007690570046956,0.01874099353479312
1099.505833602252,0.00831987613069076,1.1983786175258782e-06,0.008318677752073235
1106.5531171458322,0.0064247385275582975,7.19236799456097e-06,0.006417546159563737
1124.0720078690017,0.007969435746009652,2.7782881728706622e-06,0.007966657457836781
1128.9760649107454,0.002888152058076746,0.00018010062133096098,0.002708051436745785
1153.1333224097957,0.024678578862078353,0.011084120372643542,0.013594458489434809
1175.2399883936823,0.012309146672538946,3.649186781725344e-05,0.012272654804721693
1189.536907950143,0.008882942742408407,0.004739663918643504,0.004143278823764902
1209.8841564838451,0.018859663246991724,0.004960263748646004,0.013899399498345722
1218.478621683735,0.07465904131090494,0.04200851668788628,0.03265052462301866
1223.0814740312962,0.04786721466742566,0.030402174673165284,0.017465039994260374
1247.2159581002995,0.032429889854735994,0.018484195267450067,0.013945694587285928
1288.2010345530075,0.011479706991323632,0.006320410360928606,0.005159296630395026
1292.1495065479612,0.020210218876252455,0.007953094963966179,0.012257123912286276
1297.4327912419128,0.054488940402169415,0.0010243757931904485,0.053464564608978964
1307.5042948764392,0.021907567020863758,0.010487088738904903,0.011420478281958853
1334.481021104426,0.0027776472210911153,0.001664286518913558,0.0011133607021775575
1345.2958984967665,0.015781442452696533,0.0004045008100033535,0.01537694164269318
1359.2000011219677,0.008831007256268559,0.0015082093120176569,0.007322797944250902
1367.4132707271674,0.0037607118153873877,0.0001901400539983625,0.0035705717613890254
1371.7905575439306,0.012449805980304242,0.0006790402273636853,0.011770765752940556
1383.7624057763571,0.006856694026443318,0.0018673221566666118,0.004989371869776706
1387.4739488995451,0.005123189544625784,0.0003255761527879478,0.004797613391837836
1389.0304660617683,0.007165067738040648,0.00010697810952684098,0.007058089628513807
1392.4399573629382,0.01357595902751885,0.0019914383157017827,0.011584520711817068
1411.9717972502388,0.009617631894653807,0.0007103889320329232,0.008907242962620883
1479.2655491791816,0.05063572770872001,0.0008702897441969486,0.04976543796452306
1482.8521930180923,0.03239267497753086,0.0005706514165884044,0.03182202356094246
1483.9971366827315,0.01041604250743653,9.298314102730057e-05,0.01032305936640923
1489.6849233522596,0.004417907856617805,0.0010015538344066279,0.003416354022211177
1500.452298630922,0.004615767379846159,0.0010371945282166017,0.0035785728516295567
1502.3140245754887,0.002440918372147116,1.4922158620841839e-06,0.0024394261562850315
1544.2315873640218,0.0027554254372726774,0.002020003316116947,0.0007354221211557302
1662.3719246794938,0.04341997523823318,9.075406597743334e-06,0.04341089983163544
1682.7108878763963,0.12890136876820976,0.008893407668861547,0.1200079610993482
1838.2361183776948,0.057756357890453136,0.03678010718141225,0.020976250709040883
3026.148516288737,0.48714295357916004,0.39367386905676144,0.09346908452239858
3031.082221269323,0.9412008535897824,0.7793653238080807,0.16183552978170174
3033.370789231249,0.5632558876575449,0.45007824977666616,0.11317763788087865
3038.929058028429,0.13530201827393054,0.002899955624660612,0.13240206264926993
3042.2741001788836,0.09945826738030408,0.014249640269533875,0.08520862711077021
3060.0405617363967,0.08983008171224435,0.030933213252343654,0.0588968684599007
3089.2192842064983,0.6424755000542788,0.3541275107163187,0.28834798933796013
3090.145938633219,0.3702702340643892,0.006053531329659982,0.3642167027347292
3093.364714987414,0.9270529327225442,0.656044397980745,0.2710085347417992
3095.4919792389737,0.16817238320392952,2.6879795727042124e-05,0.16814550340820247
3101.8709519730883,0.27997342317491064,0.22105263780499226,0.05892078536991836
3107.5690318998886,0.2990557641135295,0.14431564507451553,0.154740119039014
3191.3583912858076,0.10225143117979152,0.0028737733474794268,0.09937765783231209
3197.93654035908,0.4956299558092421,0.04841417800653555,0.4472157778027065
3207.980943079051,0.3296206623938277,0.018910726206149246,0.31070993618767845
3218.0976991068096,0.4359569504119518,0.30277226352994463,0.1331846868820072
3225.234555250857,1.1830359172205156,0.9772264433948922,0.20580947382562348
3796.818650831044,0.5838881624542234,0.2856460057906357,0.2982421566635876
