frequency_cm1,total_intensity,isotropic_intensity,anisotropic_intensity
1.5102115359428547,0.0,0.0,0.0
1.1884847249806947,0.0,0.0,0.0
0.7059165829529714,0.0,0.0,0.0
1.1352952275635673e-05,0.0,0.0,0.0
9.37371040728423e-06,0.0,0.0,0.0
2.961084902518179e-05,0.0,0.0,0.0
28.480660808206796,0.002879404316786252,1.4405316409679751e-05,0.0028649990003765725
37.20429804275648,0.0013896384420795471,3.1739460650454708e-06,0.0013864644960145016
39.25261784603484,0.000757748491378209,1.1178554550596606e-06,0.0007566306359231493
57.43436706051483,0.00029793354130353813,2.4689548411389168e-08,0.00029790885175512676
78.74390254156214,0.00030768933137343763,1.0383772732757314e-05,0.0002973055586406803
90.5593388212506,0.00029396073191226995,7.433624150167267e-07,0.00029321736949725324
95.98352708303912,0.00028510511169547304,8.311927926294814e-07,0.00028427391890284355
120.94814687967975,0.00015306724882587405,2.4092854220125467e-05,0.0001289743946057486
132.9798834946597,0.00016579781244987807,0.00011493635632870492,5.086145612117316e-05
149.77554916195405,0.0004786451230627572,0.00024132336713176167,0.0002373217559309955
162.84835509219553,0.0005457944638123879,0.00012249112762174232,0.0004233033361906455
195.35090221290292,0.002252033881160075,0.0004952979814583248,0.00175673589970175
209.5606873321246,0.009234971372531061,0.007835753166174955,0.0013992182063561067
238.32337872192517,0.005060811894613827,0.0005361140484293717,0.004524697846184455
243.6820460443153,0.002481686039231344,0.0019902540731838517,0.0004914319660474927
245.5102515093167,4.6880281220119564e-05,1.4161165682469835e-05,3.271911553764973e-05
274.5633767735947,0.006308080420922256,0.005268424921678793,0.0010396554992434632
300.9718439952898,0.004973127920405547,0.004039765926707747,0.0009333619936978002
352.0763438892962,0.008103843607157095,0.0013134824596898285,0.006790361147467266
365.3223344178866,0.007936913369692572,0.005363128665526819,0.0025737847041657535
439.2740409205764,0.0016489305575804977,0.0011159920276206,0.0005329385299598979
487.22428536411087,0.0012384523112310625,3.391358354551397e-05,0.0012045387276855485
513.5854147019667,0.001503984749219489,0.00034531036316625335,0.0011586743860532358
536.872465049712,0.0033611689475725234,0.0004751804348238509,0.0028859885127486724
728.6418855749724,0.0007948164858926789,0.0002737231239643916,0.0005210933619282873
729.080536408652,0.00010125225358233625,4.155278679437522e-05,5.969946678796103e-05
742.2152738416295,0.0007908468836597887,0.00011538957449114163,0.000675457309168647
782.7628198907554,0.004324696875846029,0.0017739138333633564,0.002550783042482673
793.3473517569062,0.0012718654841727382,0.0005847075046172359,0.0006871579795555023
871.2875444398509,0.008793550836030326,0.007594409874825206,0.001199140961205119
890.9985704904279,0.005005000937568737,4.278085943261635e-06,0.005000722851625475
907.7339476462921,0.020588328282725395,0.010912444900017212,0.00967588338270818
914.5899352065541,0.05201192747229071,0.04150088516573232,0.010511042306558395
923.2296765978335,0.024684313085376233,0.0074246183460090175,0.017259694739367216
972.41858819134,0.006205774263542763,0.00043187971934177953,0.005773894544200984
1006.4328075780755,0.014101424158961234,0.000880618808085285,0.01322080535087595
1030.7253255698365,0.003325228207504108,1.1394914561171144e-05,0.003313833292942937
1034.0240326045084,0.0028204979424608727,0.001073156008368977,0.0017473419340918958
1054.9297349717613,0.012294248450319649,1.3998417370260222e-05,0.012280250032949388
1058.1971216854897,0.015152429262055166,0.013666014142112728,0.0014864151199424369
1078.805014063311,0.011470871067099282,0.0028024581589615916,0.00866841290813769
1084.3049859337034,0.03312026771266448,0.016845725945298543,0.01627454176736593
1089.3903410054922,0.021355254248683186,0.0041360926847254275,0.01721916156395776
1091.5874038894485,0.04766514712351583,7.901073891827376e-06,0.047657246049624
1108.4499645154697,0.020545146605172496,0.007551390557399228,0.012993756047773267
1123.6336351019374,0.02210572274045786,0.01991418397344831,0.0021915387670095507
1141.827208321614,0.010183016190395657,2.7287150393562365e-05,0.010155729040002094
1166.2486213027864,0.08449763855604925,0.04281431515188197,0.04168332340416728
1183.1203033520226,0.03450291375630266,0.013533170993497367,0.020969742762805298
1219.5804513756818,0.0055258122641813675,0.00010943648707771253,0.005416375777103655
1224.4477383547828,0.007444275063326897,9.844236843724904e-05,0.007345832694889648
1244.185863969985,0.008098533235894387,0.004237862882862485,0.0038606703530319024
1258.5570863667506,0.007304333571660694,0.0007087249746098484,0.006595608597050846
1266.9436542106355,0.006207106938975941,6.561773734090302e-05,0.006141489201635038
1277.6340060679963,0.005048121296202795,0.0015046292467598326,0.0035434920494429624
1289.6562412271444,0.0015025858482865554,0.0006694651816788022,0.0008331206666077533
1309.5746461159333,0.009250589470234147,0.00016646583046939925,0.009084123639764748
1312.8460588262344,0.013860207077191681,4.540050364426052e-05,0.01381480657354742
1323.2650826715842,0.01265395998033822,0.0010397340347212984,0.011614225945616922
1331.8860848648503,0.046280837173067704,0.00014418566678174415,0.04613665150628596
1334.6078097360687,0.03953475852617503,0.00042613046418941064,0.03910862806198562
1335.0161364172936,0.016911817533783617,0.0004165932480058504,0.016495224285777765
1349.8571523819603,0.009204838315904507,0.0004394097495992433,0.008765428566305264
1353.6864147684025,0.021735307945187517,0.00037585235918223363,0.021359455586005285
1380.5949562319327,0.005285698907977411,7.963215390441196e-05,0.005206066754072999
1393.1384762250702,0.0032104902308057073,7.161711928751921e-05,0.0031388731115181883
1410.8760589025746,0.001876988744929479,0.00019020568677875007,0.0016867830581507289
1413.3200003273269,0.0014404108048270555,0.0011368008523748806,0.00030360995245217495
1413.6398968850046,0.0015468049675244882,0.00012461790560770728,0.0014221870619167808
1417.2653724726665,0.003245959624889359,7.251666840366944e-07,0.0032452344582053223
1422.5921888489183,0.008215861999513076,8.193330053662684e-05,0.00813392869897645
1452.2775393023467,0.002707537522072105,7.074419320864922e-05,0.0026367933288634557
1481.605061954387,0.023597757653562174,0.001953764001616892,0.021643993651945283
1482.4638858898413,0.055253368319889744,0.002988525671715867,0.052264842648173875
1483.8185246078644,0.04045428564062276,0.0013831202180267829,0.03907116542259598
1485.305730410751,0.005787957261034992,0.00031221271350210264,0.005475744547532889
1488.040116980455,0.06632812653134802,0.0008497953589784277,0.06547833117236959
1492.6740852503854,0.0004960682859838375,1.2122800122154711e-06,0.0004948560059716221
1493.6681189109038,0.027784527647138922,2.6208144243310507e-06,0.02778190683271459
1493.8933003305824,0.025504156769960828,3.72817745217794e-06,0.02550042859250865
1495.2426266420555,0.016724263814543713,0.00030277938054632035,0.016421484433997394
1500.3497338842444,0.006146763242913274,1.8994874379563492e-05,0.006127768368533711
1504.7426768200096,0.0018940888649819992,0.00019441931425873043,0.0016996695507232686
1505.8234111545014,0.0015324062044765555,1.4703477779254143e-05,0.0015177027266973014
1513.4211088556237,0.02462939360179346,2.3133043441012086e-05,0.02460626055835245
3000.664415194736,0.3909908464572226,0.30734805164009726,0.0836427948171253
3020.469213081842,0.08590061980885784,0.029468854245666247,0.05643176556319159
3023.211861039276,1.0442411715249262,0.9782611207897538,0.06598005073517232
3024.100775640848,0.44872691480392934,0.29317525236186787,0.15555166244206148
3026.6560785085817,0.7723106250497638,0.7108751286620927,0.061435496387671096
3032.4445388453846,0.7345561426742628,0.7027343002202822,0.03182184245398065
3035.0597842935717,0.10793057154372948,0.07393975499757624,0.03399081654615325
3040.436274349115,0.6569790005102645,0.6130979868245193,0.04388101368574515
3041.6908780538697,0.03934722884960577,0.014416726758564017,0.024930502091041754
3044.2615117583077,0.27158736911180653,0.17886566423210146,0.09272170487970507
3046.105009748316,0.6661291556603011,0.06933911809020762,0.5967900375700934
3049.8879098306243,0.8904264628308236,0.8811444797010305,0.00928198312979315
3050.795411297316,0.8268816044773517,0.8211601659884299,0.005721438488921842
3055.200670657612,0.19492009010012734,0.0034515482885371248,0.1914685418115902
3058.264169488004,0.09551343434793617,0.016716728428171106,0.07879670591976506
3063.8167871970495,0.6870308337516104,0.24988797016381648,0.4371428635877939
3071.4497426792022,0.19497286028392066,7.023849398009011e-05,0.19490262178994058
3076.100358899392,0.22730437752984023,0.18537100288037586,0.04193337464946435
3083.683494051912,0.036386678926091244,0.025043461723874397,0.011343217202216845
3092.061471437028,0.1356028740552282,0.048619769218382,0.08698310483684618
3101.3831163443197,0.13310268771011724,0.06302177648032951,0.07008091122978771
3112.8569799044376,0.12667023776063202,5.412439647299517e-05,0.12661611336415904
3113.968091860857,0.12098908804952421,2.011522685055135e-07,0.1209888868972557
3120.9746164119492,0.4186747248735074,0.06394589770778657,0.3547288271657208
3122.35051373762,0.40712357013077494,0.06536604885089654,0.3417575212798784
3881.1008472648127,0.6302540495413265,0.3680458875399289,0.2622081620013975
