frequency_cm1,total_intensity,isotropic_intensity,anisotropic_intensity
3.230557667371055,0.0,0.0,0.0
2.5528657357168265e-05,0.0,0.0,0.0
1.776753936389849e-05,0.0,0.0,0.0
1.41819459598375e-05,0.0,0.0,0.0
0.5928015184372785,0.0,0.0,0.0
0.7517846118817265,0.0,0.0,0.0
9.079120265258025,0.010820424351021115,1.2356533902276046e-05,0.010808067817118839
15.727031190351374,0.007353196600444398,4.933108318943223e-06,0.007348263492125455
28.371117979516615,0.0019231990601182337,6.44129569957663e-06,0.0019167577644186571
30.823208001495324,0.0104301597620521,0.0014457132660912531,0.008984446495960847
36.841325788434126,0.024798634071125435,0.0039877362149635795,0.020810897856161855
47.25022524306662,0.004591890399149403,1.0001934624808893e-05,0.004581888464524594
56.01884667301404,0.009572102609016447,0.0023716525087677195,0.007200450100248728
69.29628314214908,0.003496009840790945,0.000689168785200577,0.0028068410555903683
90.45517550214271,0.0014293194394195301,1.6157633845747462e-05,0.0014131618055737826
98.86106606121005,0.003562518419051627,0.0011012142728494224,0.0024613041462022045
106.0884268730667,0.05123667146195601,0.02115222136845508,0.030084450093500928
120.24466660080387,0.0031887603289548613,0.0005300869929986062,0.002658673335956255
124.48063716009725,0.030012736534329905,0.00892805252378855,0.021084684010541355
141.06584768585756,0.009714310087321149,0.002676470660348041,0.0070378394269731085
157.7011923022532,0.0011259980515145823,0.00028089625483624595,0.0008451017966783364
160.51361944186277,0.0025633357784233222,0.0003885079290882359,0.0021748278493350865
195.9821730463722,0.06225234766149064,0.02304312415731491,0.03920922350417573
210.17193681714238,0.07380840611681028,0.024076633417203966,0.04973177269960632
233.14791503218626,0.001332168668574296,0.0011956386032603028,0.0001365300653139934
246.00906662041444,2.537893975694242e-05,2.5410555584184813e-06,2.283788419852394e-05
252.71338383084802,0.0033593724909400766,0.0012676911378623808,0.0020916813530776957
269.6603440939176,0.003316257062661819,0.0006378887915881474,0.0026783682710736713
293.8617295376258,0.07009199501986596,0.029827450574985225,0.04026454444488073
344.8370950616156,0.0013507874154599251,0.0005451717117644912,0.0008056157036954339
363.55864413789897,0.0368893887958511,0.007134284135701502,0.0297551046601496
377.8687627308938,0.0178579934517427,0.00858627163687437,0.00927172181486833
405.54551580830173,0.01777849787365066,0.010266709049284551,0.0075117888243661085
424.9926388140056,0.05179973908290285,0.017275768104898448,0.0345239709780044
427.813885660373,0.0012786604874910157,0.00013082228841186698,0.0011478381990791488
438.9536437108359,0.014414236118634618,0.007175433833842974,0.007238802284791644
442.5314066936267,0.004227817795162673,0.0014536683378177432,0.0027741494573449293
475.9925214638162,0.003055136891291226,0.0009110095380127771,0.002144127353278449
502.4585241297667,0.004718470314919555,0.0025676618488613347,0.0021508084660582195
539.9201920289742,0.010210248791712971,0.004968134902425418,0.005242113889287552
547.1742699718193,0.0005689863221172355,2.9437168617156177e-05,0.0005395491535000794
583.1584899611952,0.0020234923268062873,0.0007719154073571969,0.0012515769194490906
635.6837964069302,0.02531961093945566,0.016750508072180623,0.008569102867275033
652.6598056324309,0.07970240567135822,0.012307128239764974,0.06739527743159325
659.2707462174479,0.014199073433830298,0.001253546050326706,0.012945527383503592
729.0044089588301,0.0005259994340945586,5.347376125220434e-05,0.0004725256728423542
736.6534675708401,0.0002674821680805703,0.00012320303957727693,0.00014427912850329333
751.3391431626176,0.011159353276296642,2.276044031206348e-06,0.011157077232265436
762.251545944278,0.011830593925447663,0.006917298110547219,0.004913295814900444
767.757162454913,0.001737851610070018,0.0009110378242500663,0.0008268137858199518
793.8872679094416,0.004237504386846898,0.0005447523407938539,0.0036927520460530443
815.343921178969,0.2746174989731587,0.18417740024180215,0.09044009873135654
827.6419830334532,0.0014739147313365037,0.0001107626261051246,0.001363152105231379
833.4897239440332,0.001752946875096083,0.00045809235289218466,0.0012948545222038984
847.1831602271594,0.005230473346441776,3.347993912217759e-08,0.005230439866502653
853.8369206147281,0.07771659734548837,0.03910901143923,0.038607585906258374
863.8451697588707,0.0089892199586148,0.005450161366996252,0.003539058591618548
872.3920391671685,0.0028095201451860423,0.0001445807366272676,0.0026649394085587748
878.840862824393,0.01986683653573227,0.011387663078808459,0.008479173456923813
908.9277929911898,0.02970542859841111,0.0036994911932732993,0.026005937405137812
912.3014134396353,0.057904513795500975,0.0272153451013468,0.03068916869415417
923.524395248457,0.0034603434625260477,0.00019655785630571417,0.0032637856062203334
948.9452631621298,0.018340772094988595,0.0051730801135711334,0.013167691981417462
972.7161039342258,0.005893376872184662,0.0023024528168020296,0.0035909240553826318
982.2635871895069,0.014204620669746062,0.004620550707542178,0.009584069962203883
1001.683029526254,0.03692650021551161,0.012847759889229902,0.024078740326281704
1013.160166180755,0.007275770806814072,0.00124076719019479,0.006035003616619282
1014.9446605573885,0.01902855258435604,0.008143860245332427,0.010884692339023611
1018.2992411375476,0.004255088122223413,0.0017681284261461933,0.0024869596960772193
1028.940984996173,0.20067859688489487,0.07704971548943525,0.12362888139545963
1035.916896846925,0.013812988427938537,0.00643252002572922,0.0073804684022093165
1041.9920484807317,0.004343347610709764,0.002629631275164547,0.0017137163355452174
1056.96350313098,0.028852053213203804,0.012548050337231635,0.01630400287597217
1061.368247277785,0.05567311425926359,0.02487047427210016,0.030802639987163434
1085.6975721316653,0.014039357157210414,0.006507433283453092,0.007531923873757323
1090.9305964401187,0.0630926651031436,0.006765476807902085,0.05632718829524152
1094.5599830252163,0.035247767830669186,0.01768799728720588,0.017559770543463304
1100.4951237683174,0.002511668641256989,0.00010274532061126164,0.0024089233206457273
1137.5361930264344,0.01748816304182996,0.0022685972434996608,0.0152195657983303
1138.7429623248242,0.17821009056926976,0.0953715631962788,0.08283852737299095
1145.5046480608378,0.019264168245043137,0.009283806612656398,0.009980361632386737
1147.7663581263876,0.16469398546617697,0.10211285634373843,0.06258112912243854
1178.0533881370686,0.0027649856388075127,4.0682524854725e-06,0.00276091738632204
1196.9015204875857,1.4374575948412542,0.7499974291109103,0.6874601657303441
1198.291339566433,0.49160588167828956,0.2176044319798023,0.2740014496984872
1213.6781832670692,0.010338864867331803,0.0006361190784781751,0.009702745788853629
1233.1688821643954,3.434757338415407,1.5127617457727411,1.9219955926426662
1236.448642460183,0.306694023510842,0.18558542070360115,0.12110860280724088
1245.7946714198386,0.07927534364747967,0.06375487223990899,0.015520471407570678
1257.0424121928513,0.051836941864323666,0.019325047369739935,0.032511894494583735
1278.828758648884,0.018282505210527503,0.005482256918199145,0.012800248292328356
1287.7135160105618,0.4127992578798455,0.16709792880999796,0.24570132906984757
1293.1579864009707,0.03130708256658409,0.007261465664706898,0.024045616901877197
1296.2161651534834,0.07899935571649055,0.04165173880923637,0.03734761690725418
1307.331206735515,0.027346862574408864,1.0046678620421623e-06,0.02734585790654682
1310.5925108404879,0.039171758404115464,0.02366143301044517,0.015510325393670291
1324.240258474751,0.06288418484760042,0.0005815361094557721,0.062302648738144645
1331.342336401526,0.02591063850963497,7.70906344804199e-06,0.025902929446186926
1334.6249410654932,0.09256287892692025,0.041434635116326085,0.051128243810594165
1336.1559610224372,0.0001540335458161418,3.6904553493091045e-05,0.00011712899232305076
1339.38184200375,0.09693833862066162,0.05253717948362103,0.04440115913704058
1343.0887922684083,0.059990516815490044,0.02622071225342649,0.033769804562063556
1347.2911001338634,0.025818611760982567,0.012947709008592524,0.012870902752390044
1383.2833455302314,0.10402899593042808,0.045242480027085114,0.05878651590334297
1398.6162939642322,0.009179960503819806,0.005693286323677135,0.0034866741801426715
1406.8807468127955,0.04238798972256888,0.015470863541540583,0.026917126181028296
1413.0181397656936,0.006365636934382735,0.001500288295089062,0.004865348639293674
1413.221676471277,0.005388771324499763,0.002904790924390393,0.00248398040010937
1419.1907731648262,0.006529873803280472,0.0004906859295096412,0.0060391878737708305
1430.5644151290933,0.017222208409252496,0.003355035514791178,0.013867172894461316
1463.6435116430155,0.039808253776997544,0.01405652788970811,0.025751725887289436
1474.281790461947,0.499421693836528,0.22474478309999243,0.27467691073653555
1480.3494629681677,0.03660490499804795,7.796511317492699e-07,0.0366041253469162
1481.1621921826315,0.035240736432974054,0.016017674706795562,0.01922306172617849
1482.185609902919,0.026683101482761918,0.0016882919164411792,0.02499480956632074
1484.6757079801387,0.19819317498495548,0.03147010704105979,0.1667230679438957
1488.689810317335,0.0061088797320364915,0.0014100282619430569,0.004698851470093435
1493.8264312521937,0.027893210408251254,1.2858671031229045e-07,0.027893081821540943
1495.1609141145402,0.020697081372681236,0.000400696826711358,0.020296384545969878
1496.2274826958096,0.024112020393285312,0.0001602710662053863,0.023951749327079927
1502.1413861759888,0.0022431914182213645,5.466936033834542e-06,0.00223772448218753
1506.2077440388098,0.0052434831208729386,5.612512464044072e-05,0.005187357996232498
1518.1794589254014,0.010046294945746794,1.8083264504472225e-05,0.010028211681242322
1557.4901338247373,0.902806791514969,0.3228665063413131,0.5799402851736559
1566.9446095869469,0.0034052692942690248,0.0016397173692619688,0.0017655519250070562
1647.912464118085,0.004933639004302411,7.634799652841207e-05,0.004857291007773999
1650.4756239587293,2.3087403048280475,0.7383143617276458,1.5704259431004017
1685.9358230195492,11.257708664212512,3.8084212757936413,7.449287388418871
1692.316137049515,0.5115092805418049,0.2534377344161507,0.2580715461256542
1746.0703741758466,12.280923353090396,5.048491308556031,7.232432044534365
3023.3470332763964,0.4993002752958081,0.4727560811107501,0.02654419418505797
3024.9688486841897,0.7416623023663033,0.7343725877263118,0.007289714639991557
3031.2623500789437,0.5136539830183966,0.4928044447065589,0.020849538311837747
3031.5753254993256,0.6202018703072696,0.6022724346818166,0.01792943562545299
3039.4449166975255,0.06198081103195362,0.02980633665708513,0.032174474374868485
3041.961832728678,1.0155149106447883,0.9964253869620674,0.019089523682720846
3043.687866308626,0.27519393036440226,0.19305271985324968,0.0821412105111526
3045.667547128709,0.788385319339454,0.00018866981887405982,0.7881966495205799
3050.1123916732563,0.7382307104699272,0.7241262037520676,0.014104506717859596
3051.2849953426817,0.5429308005319305,0.45496155412114514,0.08796924641078536
3053.6871643146183,0.006703431881587464,0.0020604891640251446,0.004642942717562319
3066.8634578529422,0.2866066756993506,0.0003428809419290286,0.2862637947574216
3069.0169443519812,1.1517977767478231,1.104446005174517,0.047351771573306056
3073.0277905810967,0.25683925059871193,9.76560276687242e-07,0.25683827403843523
3076.6930893638028,0.004316831959638208,7.363264902072795e-05,0.004243199310617479
3085.5017562223247,0.11619246748648192,3.960142422421067e-06,0.1161885073440595
3099.715910647238,0.051222054954804204,1.7285421837464022e-05,0.05120476953296674
3113.0337706977743,0.135302112197584,1.116923771740662e-09,0.13530211108066023
3121.621363783735,0.4202585637582104,0.06574247702003806,0.35451608673817236
3140.9998037819882,0.39817462868602693,0.006302957446604843,0.39187167123942207
3149.738276502501,0.1976189058030427,7.012831601586591e-07,0.19761820451988255
3182.007385878399,0.4823077289971859,0.19333915035257865,0.28896857864460723
3185.213112086064,0.3987886626313254,0.1734065534837395,0.22538210914758589
3189.872583910898,0.253634842572341,0.06806777629354531,0.18556706627879568
3212.9357616675206,0.20941427244240324,0.12938595518055468,0.08002831726184857
3214.1210213120394,0.3444809847192308,0.06927197021861202,0.27520901450061874
3217.7683757816517,0.6330255458712382,0.45763398494111907,0.1753915609301191
3229.024463484503,0.38015215437088473,0.29379420242157145,0.08635795194931327
3237.669347708901,0.7328760764354401,0.47863734864737234,0.2542387277880677
