frequency_cm1,total_intensity,isotropic_intensity,anisotropic_intensity
4.224664810918754,0.0,0.0,0.0
4.185936824617788e-06,0.0,0.0,0.0
2.5046160371138468e-05,0.0,0.0,0.0
3.775063112519725e-05,0.0,0.0,0.0
0.42687332642286807,0.0,0.0,0.0
0.5750223944789163,0.0,0.0,0.0
7.094058381458713,0.003730168029333719,1.4868347851496499e-05,0.0037152996814822222
14.110512649651666,0.007370985297044605,2.2463770609221533e-05,0.007348521526435383
18.091330165867078,0.005550070743466406,6.1785199832133926e-06,0.005543892223483193
29.30287451465558,0.01603314047477709,0.0023221091310183517,0.013711031343758739
37.4932029954148,0.011427756723433605,0.0008511097368456568,0.010576646986587949
42.150584128904946,0.01587715809366937,0.0024764596195264573,0.013400698474142912
47.09610094377288,0.003054289216442575,0.00037070900266618833,0.002683580213776387
58.18911516944153,0.004271962307079242,0.0006118855901313514,0.0036600767169478908
62.83037988990628,0.001604654384771324,0.00010310108569186409,0.0015015532990794599
69.4768914808697,0.006160706968920294,0.0019187715462067126,0.004241935422713582
83.00120765970722,0.01673629100070636,0.0048731307097744075,0.011863160290931953
105.21055559187697,0.02435986634133015,0.00926409058852995,0.0150957757528002
113.95476361002449,0.010403595194490991,0.006476456995696163,0.003927138198794828
124.20532594619586,0.02471372270455553,0.007051144679982481,0.017662578024573047
133.2500499911626,0.015479995576841647,0.004593419719842984,0.010886575856998662
142.90580545897419,0.015429471091477596,0.0049627211572655285,0.010466749934212068
147.58981250180412,0.004051888276330233,0.000949201992396248,0.0031026862839339847
165.78826758176456,0.006499439593362975,0.0018513235357767667,0.004648116057586208
167.59734604660335,0.0013917991721183322,0.0005902182373968822,0.0008015809347214501
207.56294406172717,0.1159532151209186,0.04162395685633197,0.07432925826458664
216.32484528757684,0.012760719030869554,0.00313379631514468,0.009626922715724873
240.73048740313158,0.0023315356776196345,0.0018541622473133594,0.00047737343030627494
245.32235122172767,0.00023264216175886466,9.344750870958775e-05,0.0001391946530492769
245.73343144307356,0.0002984589622737462,7.971682198418823e-05,0.00021874214028955798
259.4176418240421,0.0038184890810856777,3.500732861397139e-06,0.0038149883482242806
306.9389661395162,0.04857945518489387,0.02224274900930256,0.026336706175591314
324.83849897233995,0.032798835202742765,0.011218177055533619,0.021580658147209143
341.99087692950764,0.02156643375172875,0.01034024559189498,0.011226188159833771
364.73627041916575,0.021581477197337173,0.006078785611677791,0.015502691585659381
392.5212715829694,0.014486560115180437,0.0058025421686622,0.008684017946518238
425.30066056799734,0.05389598523985678,0.0192154481849937,0.034680537054863084
429.14783004254787,0.007320299923481722,0.002105320894941551,0.005214979028540171
431.93530012249875,0.0011750280304081437,8.399397841973876e-05,0.001091034051988405
454.39946046671764,0.005924542951836354,0.0035558789500206435,0.0023686640018157103
462.54197340991516,0.00290724022152789,8.301352910012832e-06,0.002898938868617877
487.7139071136777,0.0037715418189117724,0.0014379348095101769,0.0023336070094015955
504.8432277493972,0.002682086217428864,0.0002856453862567061,0.002396440831172158
543.4023298998368,0.006849114650490415,0.0022485071833637997,0.004600607467126615
548.596159745935,0.0004074855291896346,7.259141001472556e-05,0.00033489411917490906
583.9435546118248,0.001925246184798707,0.0006314265798127842,0.0012938196049859228
637.8353875035796,0.027017367001287457,0.01753363736910454,0.009483729632182915
652.7033086661241,0.08477955314773475,0.012546294718941434,0.07223325842879331
659.2599104766614,0.01519524192453575,0.0014815367335013552,0.013713705191034395
729.6145173894768,0.0005888527074849159,3.723104852736219e-05,0.0005516216589575536
735.7073123271537,0.0007248619762458049,5.257678959216016e-07,0.0007243362083498834
743.5659493930273,0.00020245074086954468,5.952496837589381e-05,0.00014292577249365088
751.57022555534,0.011448885547740114,6.73870332418663e-05,0.011381498514498248
763.6020364329671,0.020270715988693625,0.012671619212558573,0.007599096776135052
779.621264107297,0.00041547101860237305,1.4497403170987137e-06,0.0004140212782852743
795.8580635761946,0.002528041528801205,0.0010403120743827697,0.0014877294544184355
798.9090128584837,0.039230840789292544,0.013679212581049425,0.025551628208243117
824.6513240635228,0.17252419428484173,0.12499636129341288,0.047527832991428834
836.3604811428514,0.00255273395693341,9.352911493007668e-05,0.0024592048420033334
854.5849965668536,0.08109528019390348,0.04095240257099322,0.040142877622910265
866.7831936611998,0.01223181477779638,0.010838183545171652,0.0013936312326247285
870.2062384251658,0.014251836670410937,0.011193005738092544,0.0030588309323183924
876.3092587694144,0.006100822987648592,0.000872633209049221,0.005228189778599371
879.7600073698906,0.017483933365878,0.0042074565146419576,0.013276476851236044
890.1467435147393,0.002885192117994086,0.0005475878287827666,0.002337604289211319
908.2836007326259,0.05201679449276127,0.014614313277219045,0.037402481215542224
912.1354565542263,0.03788349102021573,0.0014217496579279688,0.03646174136228776
914.9376197260693,0.09715704196880098,0.08500617991994934,0.012150862048851647
972.5592457754999,0.006634886930321231,0.0024853980395594445,0.004149488890761787
982.410463531753,0.011923673228360247,0.0038699483183349094,0.008053724910025336
992.7793474514679,0.0008479966965583407,0.0002627831699741337,0.0005852135265842069
996.1523362012482,0.005077805917860194,0.001114783771165417,0.003963022146694777
1001.8046389216909,0.032728660606129174,0.01181251629918009,0.020916144306949082
1014.7105666060036,0.026053709944976192,0.010285703121268547,0.015768006823707645
1028.8489587662166,0.20874333740700868,0.07801145188242413,0.13073188552458456
1033.0989732933383,0.00821006514893017,0.00029730623333854543,0.007912758915591624
1035.1969179500575,0.01689484939745903,0.006044000235344244,0.010850849162114786
1041.8568315247935,0.0009162629990686174,6.43495921633623e-06,0.0009098280398522811
1043.3238974706478,0.005328021136332,0.0007321144449880503,0.004595906691343949
1048.397154174593,0.06304324408349518,0.029249869788904415,0.03379337429459077
1070.8355606940406,0.017246993632389712,0.00028738585565455375,0.016959607776735157
1077.0907250784423,0.01138926455249555,0.008147397559847586,0.003241866992647965
1087.2802339225414,0.04988943565566526,0.010103859580086118,0.03978557607557914
1089.8839798041745,0.049610856624111056,0.004557949693134254,0.0450529069309768
1097.0199962078782,0.01307533073264558,0.0005787104889936889,0.01249662024365189
1099.406704167692,0.0028370433557755132,0.0003026168715835125,0.0025344264841920005
1137.255415871965,0.016946541785541558,0.0016269264644292825,0.015319615321112274
1139.4585092622592,0.16083424443617297,0.07938935677901329,0.08144488765715968
1144.3420977747849,0.1499712516323538,0.09345677855811244,0.05651447307424138
1155.0517799501476,0.131620373464429,0.07921512848333057,0.05240524498109845
1186.7047215926489,0.0016392810409689702,1.3643480949802143e-05,0.001625637560019168
1196.8488242411395,1.2767754649844605,0.6745644765795815,0.602210988404879
1198.6668059040987,0.7320195140158632,0.33253125011787305,0.3994882638979901
1217.2191436608944,0.013067492649079105,0.0021327186340945395,0.010934774014984565
1233.1863462068468,3.7832735712376806,1.6633876037414577,2.1198859674962227
1238.7817422178164,0.2548626378820611,0.17083491132382056,0.08402772655824056
1238.8345837308018,0.005524746231902926,0.0013584433741131786,0.004166302857789747
1252.2123281837476,0.04450121681156249,0.03675987098145858,0.007741345830103903
1267.4142714828163,0.029798887462099154,0.01024541359174837,0.019553473870350786
1270.991558484639,0.06702175365255691,0.019729759887642254,0.047291993764914664
1279.3092869721463,0.00716701037365336,0.00012183249121174117,0.007045177882441619
1289.2972255676498,0.48131984440749775,0.19483834323768182,0.28648150116981597
1301.6320701445393,0.010825868183523402,3.811192193962399e-05,0.010787756261583778
1302.1167588011892,0.08405682206310269,0.03278712824243319,0.051269693820669496
1312.4713881486841,0.05313539119870254,0.027403588754614582,0.025731802444087955
1315.9150132333923,0.033385074733589676,0.012705739972139298,0.020679334761450376
1325.8240463712211,0.046300011075074594,2.1700284904350922e-06,0.04629784104658416
1331.294396097146,0.04619918584853441,3.3393286207246994e-06,0.04619584651991369
1333.3586951597515,0.005786585458441068,0.0008375137605892442,0.004949071697851824
1334.7815046297153,0.09490642567452073,0.03995403225314733,0.054952393421373404
1337.0018917099762,0.016829477761337794,2.3811143330619386e-05,0.016805666618007174
1338.9039000877628,0.10828643630136786,0.059583564651212104,0.04870287165015575
1345.1061846897926,0.011302341784368456,0.002360358915747651,0.008941982868620805
1353.6063345967711,0.001860279292384235,0.00031247399360435354,0.0015478052987798814
1366.19881591826,0.10944288787614195,0.05699130079728024,0.052451587078861724
1398.5998691084978,0.08855690392285409,0.03378068998846565,0.05477621393438843
1408.7184833341207,0.009651428044350478,0.0006318412221471429,0.009019586822203336
1413.0372088251283,0.0013401293798622233,1.2127378028633745e-05,0.0013280020018335895
1413.5411850450323,0.010083781395349338,0.003150973849906653,0.006932807545442685
1414.5837304284319,0.004217795938367165,0.0004776409980745299,0.003740154940292635
1417.059288225346,0.0085334317529524,0.0023524525681706855,0.006180979184781714
1436.539254361535,0.009563774443586087,0.0008996349610473303,0.008664139482538757
1463.5400467569057,0.04299617837221673,0.014716171220876678,0.028280007151340054
1474.4117446456758,0.5320904952792271,0.2440214374402746,0.2880690578389525
1481.7829313308005,0.05612751510167684,0.021771371473998137,0.034356143627678706
1482.5065078544155,0.07495838517608676,0.006963169210170998,0.06799521596591576
1482.9325960169458,0.07009591231787667,0.0068122655086655555,0.06328364680921111
1486.541352441483,0.11560575666587072,0.017618472571089876,0.09798728409478084
1487.3689983455793,0.0019514897445987566,0.00031526845765340514,0.0016362212869453514
1492.7261961557833,0.004062735162284299,0.0005794683704711828,0.003483266791813117
1493.852894968177,0.028119792868734006,1.6354681084589626e-07,0.02811962932192316
1494.7299561972552,0.028223820994655403,8.232424832101513e-07,0.028222997752172192
1496.6694467824482,0.028592333053098724,0.0009159852108564319,0.027676347842242294
1500.9393258143837,0.012269353505857545,9.307711350623492e-06,0.012260045794506921
1504.4307991915475,0.003620065772473424,0.00020494012488071842,0.0034151256475927058
1506.1120523803072,0.003997737121161678,4.871459099599605e-05,0.003949022530165682
1516.228160412644,0.007204209838354257,0.00025837732611324433,0.0069458325122410125
1557.3876652735944,0.9199705070019761,0.3342586211954879,0.5857118858064883
1566.8111968867454,0.005997258737913799,0.0033072039023456573,0.0026900548355681415
1647.8688290224914,0.013645504573018424,0.0016617251224741144,0.011983779450544308
1650.259730107297,2.5665256038819773,0.8232209964464591,1.7433046074355183
1685.9408205664095,12.256639697017038,4.159868380528474,8.096771316488564
1692.217542930377,0.27525865181764575,0.15070340576246072,0.12455524605518506
1746.149139408705,12.932223989119782,5.307166250661093,7.625057738458689
3019.452234809584,0.23297410255840903,0.20759664010548562,0.025377462452923417
3024.4424855940247,0.9421814148560933,0.9171555650974261,0.025025849758667215
3028.4977054620836,1.1491944768750482,1.1265586909824805,0.022635785892567654
3028.6380902750807,0.034222601849139306,0.026451930137645702,0.0077706717114936034
3038.8589968868123,1.2876643588622014,1.2483425402259045,0.039321818636296926
3041.9867069996853,0.013008545788553608,4.781426435684951e-05,0.012960731524196759
3043.4629931632226,0.23730505278137298,0.15720114889227368,0.08010390388909931
3043.88260112512,0.3439938783444446,0.31585595448640363,0.028137923858040967
3047.513171914812,0.6769196835466538,0.00018625763039236315,0.6767334259162614
3050.6262972850363,1.2199638732126878,1.2067004100644996,0.013263463148188236
3051.5096934315493,0.22908328441368722,0.13492988394900468,0.09415340046468254
3051.9844728815347,0.9880281695660532,0.9740804143449904,0.01394775522106283
3056.0955488790373,0.5150965834750251,7.66033931268224e-06,0.5150889231357124
3060.3926185055957,0.002787287574763672,0.00039224069900869004,0.0023950468757549816
3062.1066009928886,0.18908896217096846,1.655073586272955e-05,0.18907241143510573
3064.506134300845,0.4036512765327839,0.37571092256689126,0.027940353965892596
3073.870126431965,0.3214852074982042,1.3319490198744722e-05,0.32147188800800547
3080.8516258295367,0.08705319272106356,7.992154060887827e-06,0.08704520056700267
3083.807678973833,0.0007878900045100475,8.924409266039161e-06,0.0007789655952440083
3099.6087645500024,0.08160388043138164,9.465566593520994e-05,0.08150922476544643
3111.051929570452,0.11852971422447704,1.0118922951443259e-05,0.1185195953015256
3113.8289488199935,0.12827500440770662,1.4621895976028555e-07,0.12827485818874684
3116.200362469575,0.08805368853183727,2.509918968272216e-07,0.08805343753994045
3121.8507389784495,0.4379643137784893,0.06848228533605238,0.36948202844243694
3124.7750340742973,0.4427340575976618,0.07623509799123294,0.36649895960642886
3182.318092780111,0.48463837206402455,0.19456280212425886,0.2900755699397657
3185.0622514844167,0.40093830590777324,0.1731760119264934,0.22776229398127984
3189.821906120185,0.25416490569814,0.054556918581335906,0.1996079871168041
3212.609946406884,0.2002569456847494,0.12419363592712314,0.07606330975762626
3213.61381210768,0.32883855844058413,0.06183176110484041,0.26700679733574373
3217.2077094163196,0.6474376998700097,0.47040553234174737,0.1770321675282623
3228.425393810567,0.3525750372347623,0.26930998910398973,0.08326504813077255
3235.9048605838834,0.7770470426899523,0.5050384913186903,0.272008551371262
