frequency_cm1,total_intensity,isotropic_intensity,anisotropic_intensity
1.551844106822112,0.0,0.0,0.0
0.3995535100081923,0.0,0.0,0.0
1.9449172245851676e-05,0.0,0.0,0.0
1.0169337384501466e-05,0.0,0.0,0.0
1.6064635241686328e-05,0.0,0.0,0.0
0.34692543343868776,0.0,0.0,0.0
13.507434154714277,0.0060587414760955895,1.8160711041419223e-08,0.006058723315384548
22.970941235334124,0.00039355845143320984,5.7605429706202636e-06,0.00038779790846258955
30.1547452211583,0.006712735843433482,2.281296571761017e-08,0.006712713030467764
34.33602027681529,0.008542234488482684,1.3794443528870575e-09,0.008542233109038332
66.50078488432315,0.0015336505713859365,0.00014903970960273395,0.0013846108617832026
67.59339734897652,0.0011864969501353521,5.068520414722853e-06,0.0011814284297206293
79.94909228984545,0.0007636291055094739,4.42770318658965e-07,0.000763186335190815
113.38900086774464,0.000526789047764477,1.497047280166211e-06,0.0005252920004843107
124.55781660430759,0.0005946557665202173,3.927387513287107e-06,0.0005907283790069302
134.65739089681475,0.0036537976900198514,0.0025208403041916336,0.0011329573858282177
151.1362195906931,0.015722955012776076,0.009934566608740626,0.0057883884040354485
152.43369672682874,0.00025152189385374405,5.9877900748802636e-05,0.00019164399310494143
157.01165470889762,0.00034191623088384736,3.2088131435825136e-09,0.0003419130220707038
173.52793730284046,3.1819058062822455e-05,5.4746166421247155e-06,2.634444142069774e-05
175.07233202079274,0.00017090465518828407,2.3729477921197066e-05,0.000147175177267087
224.07601557104707,0.0001762750480678559,1.8641072432401033e-05,0.00015763397563545484
233.0877257447907,5.925680374773905e-05,1.9596827926265492e-05,3.965997582147356e-05
246.02122947416697,2.143438524700889e-05,2.031884557777826e-09,2.1432353362451114e-05
301.15060314748115,0.0005102382467506221,8.703635111179837e-08,0.0005101512103995103
317.95924410652583,0.000689160626811801,4.772758381057717e-10,0.0006891601495359629
368.9165374093977,0.00898616429263137,0.0005890685767053306,0.00839709571592604
377.2270895757022,0.0007499388911038314,1.2494240393542999e-05,0.0007374446507102884
415.51937244823506,0.005830397724270836,0.00278696489343263,0.0030434328308382064
429.8682647188694,6.174557595749376e-05,5.471614728190061e-06,5.62739612293037e-05
450.9029733111615,0.00861881950768649,0.004850702756556176,0.0037681167511303135
492.2308454495263,0.0010255593825522944,0.0001016430417600414,0.000923916340792253
515.2442442447552,0.002596381969104982,0.0007929295283540684,0.0018034524407509137
528.1135533151172,0.0024470281880936175,0.001304099665717263,0.0011429285223763543
564.8767163421771,0.004740946502870499,3.7675473482411534e-06,0.0047371789555222575
656.9474386529022,0.03843280778806484,0.0016810434234910685,0.03675176436457377
659.2531043318564,0.038627516989101954,0.02295800969854943,0.015669507290552522
728.4253116116292,0.00014811105709369347,7.411919969243932e-07,0.00014736986509676907
731.6800717877638,1.602592187195057e-06,7.110873393228012e-08,1.5314834532627768e-06
739.0496343125797,0.006569044463543931,0.00015596961282724256,0.0064130748507166884
743.0432720736582,0.00024461322261144807,2.03994287149614e-07,0.00024440922832429844
768.6062798530718,3.051259835878148e-05,4.842028837083111e-06,2.567056952169837e-05
791.8149711751836,0.026153774071932853,0.01823815522676009,0.007915618845172764
809.2893764401493,0.0002794123099507518,4.773291416703134e-05,0.00023167939578372046
825.0316074926088,0.003978410002925573,1.7760381539497868e-05,0.003960649621386075
856.7861239948331,0.0020803711726009493,0.0017093231720727256,0.0003710480005282235
867.2763180128601,0.0024434793759063925,0.0020859972047885616,0.0003574821711178311
877.7793583170405,0.23027342884988605,0.20275304295193455,0.02752038589795151
908.3542792405432,0.03808378103514739,0.024062918342104923,0.014020862693042464
928.6949547145742,0.00071941381253299,1.8092854386461352e-05,0.0007013209581465287
953.5530924848306,0.0014454262969095845,0.00042207309472211543,0.001023353202187469
977.6844207003472,0.00013449303945059062,4.255098172526154e-05,9.194205772532908e-05
993.4073928512951,5.506942528698327e-05,1.2094624940653508e-06,5.3859962792917915e-05
1012.007083173762,0.003695829132933051,0.00299347716158748,0.0007023519713455713
1028.2298931100552,0.0013962305122366804,0.000973889636711908,0.0004223408755247723
1034.3940348713897,0.0012060101624609748,5.5585907484274945e-05,0.0011504242549766998
1047.9852928852,0.00011430605594798819,8.147638158724687e-07,0.00011349129213211571
1051.2543935980175,0.003934661273606649,0.0004258211375080865,0.003508840136098563
1070.8990497731613,0.018438738818546165,0.01577071173444747,0.0026680270840986923
1083.7113840189184,0.031553536865947696,7.85851048382296e-05,0.03147495176110947
1089.502045019794,0.049411326842762227,2.7273126612741424e-05,0.049384053716149484
1091.9984755674657,0.009827285749270965,0.0017728828813926155,0.00805440286787835
1097.329023469374,0.007505396509946672,0.000382268261963148,0.007123128247983524
1105.068238403405,0.007551882648971199,0.0067745784289291655,0.0007773042200420339
1116.787347418782,0.03363053664050978,0.01117089689185512,0.02245963974865466
1145.5594171944554,0.0007131417651438301,0.00041284103700907267,0.00030030072813475733
1158.1720196338958,0.21412311537121398,0.12743881091265183,0.08668430445856214
1189.3658603775245,0.003954176700705741,8.468474511809369e-08,0.003954092015960623
1201.5116018307504,0.03202610907456633,0.0202542424587004,0.01177186661586593
1212.76109804519,0.0063177710708400775,6.221292457160636e-08,0.006317708857915506
1231.6512014763346,0.0008037915542811883,0.00020118163763681,0.0006026099166443783
1245.3586393897976,0.0019608984815247437,2.153029660390493e-06,0.0019587454518643532
1267.2259738473642,0.003379063205626956,0.000868883531311157,0.002510179674315799
1276.1794962891909,0.017617214448451823,0.008815402015278244,0.008801812433173578
1278.6832412641795,0.0023717380996431925,2.96431450757602e-08,0.002371708456498117
1293.6584478870304,0.04450042632096497,0.0284930966272007,0.016007329693764276
1305.6192433315161,0.007770624741748509,0.006519752174849038,0.001250872566899471
1306.9386583519536,0.0008573457429740006,7.199302430544554e-05,0.000785352718668555
1321.9275036108656,0.08923314167435341,1.0953107377429802e-06,0.08923204636361566
1327.8209659078032,0.15160906281844544,0.12749317942379715,0.024115883394648277
1328.1492271442125,0.03749034731636829,4.935658644475402e-06,0.037485411657723816
1329.428727873948,0.015789788431622247,5.803644422374605e-07,0.01578920806718001
1337.2565760890118,0.0005784402357891552,7.50503308824993e-08,0.0005783651854582727
1338.560713065164,0.002178290531114368,1.5619079896636068e-07,0.0021781343403154017
1344.196211324521,0.0022630951089097928,4.439273926623364e-07,0.0022626511815171304
1356.5184766494654,0.06383030861026623,0.04138159278736607,0.022448715822900155
1379.1395137637764,0.0005818191209358144,0.0002772658549794742,0.00030455326595634017
1404.6692824819286,0.0037725236027409204,0.00018014852791849807,0.003592375074822422
1412.6787460585535,0.0014869841285215927,0.0005821674083073109,0.0009048167202142818
1418.753636783622,0.0018493480966621382,0.00013366921751813048,0.0017156788791440076
1421.5561761615868,0.007946045715804333,5.343483270161442e-05,0.007892610883102719
1436.7682929374698,0.007212629363317086,0.002617690539964229,0.004594938823352858
1480.6205048369143,0.0025304372701568257,0.001265380527818398,0.0012650567423384278
1480.9970074015696,0.0014378641635581562,0.0009490672925252326,0.0004887968710329237
1483.9945852742292,0.13401696329745827,0.013762923359152008,0.12025403993830627
1484.5430355145743,0.022745975137179592,0.00010322863402618757,0.022642746503153406
1488.698079873334,0.049334526698222275,0.00423516782572703,0.04509935887249524
1490.3302125910504,0.0052692491965723315,0.0035453967835457328,0.0017238524130265991
1493.5988564759114,0.0024952822331402464,0.001312665179912797,0.0011826170532274495
1493.7847328954983,0.026832652927654035,1.564397752690401e-05,0.026817008950127133
1498.4685854181232,0.018425686652878404,0.0011249471783548995,0.017300739474523506
1502.9060267201214,0.002879928158185041,0.0006708894871145941,0.0022090386710704466
1506.0651269846394,0.0030407452387356416,2.7195613910577113e-06,0.003038025677344584
1516.509632722689,0.012330340551995648,0.000900266552550253,0.011430073999445395
1563.107162177923,0.0025027047650251003,0.00020718647582405986,0.0022955182892010406
1654.443456517156,0.025531088470191268,0.01124853238283831,0.014282556087352958
1666.8390693239348,0.02232656663298583,0.002704166531495668,0.01962240010149016
1703.323909561078,0.47638906299472306,0.13515227731809154,0.3412367856766315
3008.0577600571905,0.35915433537110775,0.3466884453192543,0.01246589005185343
3022.466926115559,0.22024468911447598,0.20401086218696315,0.016233826927512816
3023.97450337617,0.18223104881726343,0.1752091343570995,0.007021914460163923
3025.6938256777735,0.6834932488292593,0.6585880672212197,0.024905181608039652
3026.8583646828292,1.9643488317789153,1.9460367326252381,0.018312099153677156
3031.799440930957,0.26359858066340297,0.25128617546067766,0.012312405202725318
3038.158693909463,0.10122079830285974,0.08735983402616561,0.013860964276694131
3041.4432008606027,0.3965711896378246,0.36944854682174344,0.02712264281608119
3044.5379096449406,0.9875073704333481,2.6627164893951615e-06,0.9875047077168587
3047.9465930550236,0.0013589341762992252,2.3752530137919145e-05,0.001335181646161306
3048.7484436723826,0.32340440647795393,8.55054757338786e-06,0.32339585593038056
3049.8514227836913,0.906191005750154,0.898847673465815,0.007343332284339045
3053.952826945406,0.23585958799977452,7.178577404219571e-06,0.2358524094223703
3062.130620644363,0.3537264832686267,0.34486107258595233,0.008865410682674397
3062.3096110351944,0.00865440699170289,0.0013003146877736665,0.0073540923039292225
3072.680891170969,0.10657820143875872,6.078280544674819e-09,0.10657819536047818
3081.5144015297155,0.0246425543963408,3.780812397553162e-07,0.024642176315101044
3089.008676604463,0.02031848511354186,8.883116947239129e-06,0.020309601996594623
3109.124457921401,0.04917188646177277,5.89210494933773e-07,0.049171297251277835
3112.796156623344,0.12958412163468017,1.8942852013779904e-06,0.1295822273494788
3120.9941638945515,0.4100117598436688,0.06297505457864375,0.34703670526502506
3187.7645999507613,0.3816644298551136,0.07847439906671055,0.30319003078840306
3189.0269307772187,0.3856822857307778,0.1993596519683131,0.18632263376246472
3217.137648816799,0.6016206323701447,0.4254141899094845,0.1762064424606603
3230.6347469318716,0.5567887056242877,0.3983641986922124,0.15842450693207535
3588.599054543982,0.992009292220354,0.7785264199274893,0.2134828722928648
3679.2979714523435,0.3085906854001084,0.0005460152363410812,0.30804467016376735
