frequency_cm1,total_intensity,isotropic_intensity,anisotropic_intensity
0.7791191541339275,0.0,0.0,0.0
1.4721473784621199e-05,0.0,0.0,0.0
2.076145473963637e-05,0.0,0.0,0.0
2.365438174523441e-05,0.0,0.0,0.0
1.039792488806808,0.0,0.0,0.0
1.8875394625666513,0.0,0.0,0.0
19.12529457639581,0.0066623787688372665,0.0007013576606691227,0.005961021108168144
37.16561899078153,0.0035541888217461297,4.443405793762164e-05,0.003509754763808508
48.2585749343395,0.00847230003877742,0.0012853508280829846,0.0071869492106944365
64.00072034794351,0.002162197373528811,6.344719733529119e-05,0.0020987501761935198
74.47160295070977,0.020684243503936234,0.0041764506698070665,0.01650779283412917
91.27889745755705,0.0029925111010009543,0.0006637704463534877,0.0023287406546474666
97.26585266427278,0.00776644712288629,0.0019363908336927594,0.00583005628919353
114.4790671599479,0.00474458274734859,6.256079130438071e-06,0.004738326668218152
121.34214032706252,0.0029792838022844343,4.2212198424766914e-05,0.0029370716038596674
137.29531964241565,0.00020464440820245835,4.1662758721727456e-05,0.0001629816494807309
161.99186252073002,0.0014691615605115487,0.00029659505002284294,0.0011725665104887057
180.34689267327565,0.003768287923746733,1.625609169078989e-05,0.003752031832055943
194.90269482509996,0.0020531307321677195,8.363378097306956e-05,0.00196949695119465
207.20750972198698,0.0028400668741903603,0.0002535430620454859,0.0025865238121448746
221.09021888577956,0.007376535982118383,8.225229427861111e-05,0.0072942836878397725
233.80915064256035,0.002014321738777756,0.00029818780651308597,0.0017161339322646699
237.91135037483218,0.008740832724127583,0.000997437839978794,0.007743394884148789
260.94906965998643,0.012041907277458547,0.004105349867251392,0.007936557410207155
293.7104056013266,0.004702778498353584,1.2627399450333182e-05,0.00469015109890325
310.280103363243,0.0074478318979600625,0.0010021123133730522,0.00644571958458701
316.23355414663496,0.006085047194105334,5.215565128256638e-06,0.006079831628977077
320.66084342927667,0.004684470128394285,0.0014920775108056338,0.0031923926175886513
344.9481283374543,0.024221741108354997,0.021692240389499455,0.002529500718855542
367.0807731330671,0.0414237188380918,0.03485679463041438,0.0065669242076774265
395.69813067958296,0.014942378339404584,0.00068005591720219,0.014262322422202394
424.73406762389385,0.019717891215828662,0.015645019623282186,0.004072871592546474
451.5111525285335,0.014919480546840263,0.012179344719133008,0.002740135827707254
460.7982439538823,0.003293062805710874,0.0012796464379632986,0.0020134163677475755
496.28525671951655,0.0030672570149320793,3.3849573203798993e-06,0.0030638720576116993
540.5072314874194,0.01976418437394791,0.008460881253167008,0.011303303120780903
601.6228058911064,0.005254915429629203,0.0029852883320292834,0.0022696270975999192
616.5510998545557,0.015712819170601307,0.0037249430617903962,0.01198787610881091
631.0394029869669,0.017623461129701576,0.013538751460742423,0.004084709668959152
649.6017214057475,0.00367044104600536,0.0017284629761641888,0.0019419780698411713
715.7187098198381,0.0047660091922392175,0.002915234098012233,0.001850775094226984
766.7439833881625,0.001908004967357973,7.944939421227168e-05,0.0018285555731457014
770.300743288181,0.01271039169692919,0.004363779030070734,0.008346612666858455
776.8173028927264,0.008300194952970899,0.00206518775435235,0.006235007198618549
785.9934079294774,0.010963866120029638,0.007454273585011342,0.003509592535018296
799.5180122940292,0.02956441926694873,0.023843155474750355,0.005721263792198375
826.9069141026404,0.008283361442608448,0.003190567478458412,0.005092793964150036
827.598228315856,0.06772044176846112,0.06565079568420597,0.002069646084255152
883.7248542887171,0.04853277503406262,0.042039757514914615,0.006493017519148007
904.2597867870594,0.006812504181414434,0.0029663538908996654,0.003846150290514769
933.4846739560128,0.0019667107322141053,0.0008881612181247157,0.0010785495140893894
944.2593439578429,0.010558859872329232,1.6338584886932197e-07,0.010558696486480362
958.495424056413,0.007341017787583676,9.282357146537569e-06,0.007331735430437139
1023.4148430081246,0.017061288918913793,0.004796197434464173,0.012265091484449622
1029.8024050131464,0.007546493203026033,0.0040580825664555936,0.0034884106365704395
1039.64375148314,0.009282734785546722,0.001409846800361228,0.007872887985185494
1045.5661374744634,0.002857236534247455,0.000938953556324109,0.0019182829779233457
1052.2543990293832,0.05692396853542937,0.01720300227545044,0.03972096625997893
1073.6253724675282,0.003607863111511421,0.000288650503311852,0.003319212608199569
1077.7582055121627,0.012776660722182137,0.0035713221783260037,0.009205338543856134
1083.9131871122584,0.021435588885429475,0.01587338159886128,0.005562207286568196
1118.2725043663845,0.03698799848328837,0.030960658084071526,0.00602734039921684
1152.208295949399,0.030403569455873664,0.016461275742383426,0.013942293713490237
1178.7257585042767,0.005626448499397793,3.690622621052349e-05,0.00558954227318727
1193.7546353290033,0.018854402633007087,0.014254495395459362,0.004599907237547724
1234.4562188780847,0.01579788706507862,0.00209459352204921,0.013703293543029411
1277.4715411615284,0.06427459159538293,0.0003833059500062273,0.0638912856453767
1281.2032896409178,0.014397712162848048,0.0026735080833676784,0.011724204079480369
1285.9664602445152,0.12974204137975004,0.037868991235051316,0.09187305014469872
1323.5280330920398,0.034328412088733114,0.013798146832740093,0.02053026525599302
1341.5080605369421,0.020877958620609014,0.0006306496595170185,0.020247308961091996
1349.2312991521444,0.006794521062722429,0.0013875608557386986,0.00540696020698373
1365.1761970872376,0.2239107714417447,0.15171029583002876,0.07220047561171594
1400.875952634087,0.01297089096668392,0.002954453584323272,0.010016437382360648
1403.7860085722148,0.011941359756130733,0.006360022704521752,0.005581337051608981
1411.6084138498975,0.03178526110848086,0.0016356401944859075,0.03014962091399495
1416.0324951205582,0.0035726077780116015,0.0006687648280957216,0.0029038429499158797
1420.7382640597398,0.05787834387860794,0.016317588759470016,0.041560755119137927
1422.2055204358094,0.0158915949620577,0.012040421090553343,0.0038511738715043564
1441.9858378855636,0.05825071023654915,0.0395745368633256,0.01867617337322355
1452.8113832759939,0.11238173029403334,0.009474946564566667,0.10290678372946667
1459.7813483653456,0.2360857133218336,0.1821290402864338,0.05395667303539979
1475.6372184776128,0.0177885414157266,3.967858136150367e-06,0.01778457355759045
1482.8093305088205,0.05873355837420622,0.005865702684113753,0.05286785569009247
1486.3012647443602,0.034656512304739664,0.005036292908105176,0.029620219396634492
1488.8661842914496,0.02450121090323334,0.004575443501331646,0.019925767401901696
1495.0651829085045,0.017523836259652318,0.00024746479385133024,0.017276371465800987
1496.5741151630161,0.009978799650367,0.002981106968406213,0.006997692681960786
1498.8550131443626,0.05453829747086576,0.01632746251706441,0.038210834953801356
1507.6565146730397,0.008970533445181464,6.375130861190432e-05,0.00890678213656956
1510.5036639083635,0.030750335036124305,0.0017213341367736282,0.029029000899350677
1510.9262960677074,0.014847112709541003,0.00028313854123048594,0.014563974168310517
1539.0068286655276,0.017552579714170315,0.0016751488513305675,0.01587743086283975
1578.689015885947,0.042190727086101956,0.01877137636487102,0.023419350721230938
1629.265401030996,0.2547251168812949,0.03434878566413803,0.22037633121715686
1645.6150390437376,0.03224929381536521,0.012475676774227996,0.019773617041137215
1664.64053860044,0.07706446565165524,0.002194880187795081,0.07486958546386016
1700.7559182861994,0.58408121650987,0.14419785727148704,0.43988335923838295
3035.2709616602287,0.3174078707489659,0.2743822642665998,0.04302560648236616
3048.1013199493823,0.5761223727130178,0.48898022939073155,0.08714214332228626
3060.143990519775,0.5906032830337274,0.5605286256813606,0.030074657352366793
3062.0977539907076,1.5780776701292007,1.3406976988834043,0.23737997124579638
3067.0696404555265,0.8460490016457329,0.8155159307376363,0.03053307090809667
3083.402324664305,1.2570628422108083,1.0957237614887292,0.16133908072207923
3086.9573849318417,0.2285911939536026,0.04838705226295219,0.18020414169065044
3095.6768983490742,0.30584799926660267,0.07314706255832754,0.23270093670827513
3119.1127365830152,0.35605203722837325,0.01585937981832006,0.34019265741005317
3126.5970339920796,0.3571156664041591,0.1269823494161287,0.23013331698803038
3127.680453489195,0.24254346342873262,0.01620078509087587,0.22634267833785676
3132.8138513811614,0.19445984168439073,0.014394342961692456,0.18006549872269828
3138.651946897999,0.1408624914486323,0.07655599229087029,0.06430649915776201
3147.450755467241,0.3368926354421034,0.009666160528402839,0.32722647491370055
3149.2920863935747,0.1792286691630677,0.000283009615286162,0.17894565954778155
3151.8120763757024,0.13191875445647816,0.012262182638557153,0.119656571817921
3171.3792204210035,0.21765905541398003,0.01273257604162311,0.20492647937235692
3228.2638143450204,0.2758107202420282,0.15278789050301791,0.12302282973901027
3644.1112777497315,0.11507038705610345,0.08569427351258291,0.029376113543520543
