frequency_cm1,total_intensity,isotropic_intensity,anisotropic_intensity
1.763501172351171,0.0,0.0,0.0
2.276170019681759e-05,0.0,0.0,0.0
1.9227910477462233e-05,0.0,0.0,0.0
2.3294484054158285e-05,0.0,0.0,0.0
1.195080990016065,0.0,0.0,0.0
2.024652432629458,0.0,0.0,0.0
19.157608381375702,0.002266133663210092,1.4995782733346018e-05,0.002251137880476746
47.77524192818774,0.0024130713728108184,4.3525126212422255e-05,0.002369546246598396
52.22106589894164,0.0033104034437890745,4.3510304743246725e-06,0.00330605241331475
60.36725731851035,0.001153728784936952,3.2350189949761785e-05,0.00112137859498719
66.84294152797133,0.0005845846178481127,1.1781557509193255e-05,0.0005728030603389195
81.47408572740434,0.0028141385023402886,0.00012419621704804412,0.0026899422852922445
136.05691089831151,0.0008482159377432299,0.0005130128564582707,0.00033520308128495924
157.57670350294813,0.0015589217720487847,1.2273404946691526e-05,0.0015466483671020932
194.93517655598444,0.005041963915390798,0.0009325466012078296,0.0041094173141829685
208.57720162992325,0.0034554322263870237,0.0001330578087784957,0.003322374417608528
220.12573711798655,0.0012627771242526105,0.0003050107840784469,0.0009577663401741636
230.2219702541692,0.016882389954042634,0.012733387949487248,0.0041490020045553844
236.4993059260577,0.0015117397593805806,0.0008472600669834435,0.0006644796923971371
238.40412366334076,0.0009388050618177742,6.022666269296571e-06,0.0009327823955484777
245.09339490726444,0.0014339642591826467,0.0006520385062947739,0.0007819257528878729
271.9147063306749,0.0003769343017281343,3.557132538202364e-05,0.0003413629763461106
272.61435069560883,0.0010475759195781708,2.443189982466924e-05,0.0010231440197535015
295.1091268045966,0.0014797924585421031,6.719553627090245e-05,0.0014125969222712007
338.84169478231235,0.0033455867129865706,0.001745650872493129,0.0015999358404934416
354.874902128657,0.00258210363967407,0.00029471005698255735,0.0022873935826915126
361.10288314116025,0.0031289718187452647,7.656389589127838e-05,0.0030524079228539864
398.15921927506156,0.0020587754470291525,0.0012352457682177239,0.0008235296788114288
408.6849443517315,0.009307482926366701,0.006708248329643039,0.0025992345967236624
419.9366259974227,0.010004254001698305,0.00729806077066068,0.0027061932310376265
427.72983863561905,0.008776787735612739,0.006352856757817504,0.002423930977795235
440.8313701063802,0.002750579802388641,0.0001358158889257252,0.002614763913462916
447.6684345572538,0.0036666743928883694,0.000257979441208432,0.0034086949516799374
686.8802905245473,0.020796626182321545,0.0016077459972559792,0.019188880185065565
715.235235658795,0.02869346876855483,0.014365876607542924,0.014327592161011905
754.233427596255,0.038391844911482204,0.000608747808576002,0.0377830971029062
773.014678075677,0.01719378847364459,0.013046466829202616,0.004147321644441975
814.4216584174011,0.01310277021379286,0.007788050136213267,0.005314720077579593
837.559244749152,0.011262173758265834,0.0009617679834732675,0.010300405774792567
852.7722413713303,0.07447527547903506,0.07082891300646313,0.0036463624725719293
856.8587411834787,0.024593403918551304,0.019947757863411113,0.0046456460551401926
871.6326351879213,0.0048950975227456716,0.0005856294923046018,0.00430946803044107
926.9965480834724,0.009500266719414837,0.0008718979695308965,0.00862836874988394
930.0195779076662,0.008002310390132751,0.002746150835011182,0.00525615955512157
932.1041010962853,0.00867080200618499,0.00048098755700396817,0.008189814449181022
966.1137128914081,0.025233978789011124,2.7276063519395413e-05,0.02520670272549173
970.9647199819675,0.008702424532062995,2.3068610678431573e-05,0.008679355921384564
973.4273290181553,0.028016772501831055,4.498139776508311e-06,0.028012274362054546
973.8996414876336,0.01135854088030166,1.0513397817068063e-05,0.011348027482484592
976.575049120943,0.009821362814893759,0.0005459884097484721,0.009275374405145287
977.8425686473972,0.012446068497448285,0.0007154793841994857,0.011730589113248799
1067.5217287753603,0.013927277141814567,0.004414793930641944,0.009512483211172623
1085.3099044312082,0.007799893841828311,0.0028604445987810982,0.004939449243047212
1091.3787505670018,0.01350180460884258,9.793680020050595e-05,0.013403867808642073
1122.3557438089456,0.017872495955110188,9.78569206589154e-05,0.017774639034451273
1133.845366565244,0.03953508034728704,0.0038400169212679668,0.03569506342601907
1141.1844542198276,0.03489674239204045,0.02182693157994354,0.013069810812096915
1192.719628462309,0.006592578315300273,0.00012191516404515672,0.006470663151255116
1195.529181986908,0.012056302154837373,0.0003858673223094018,0.011670434832527972
1198.2841001621646,0.015983511183816634,0.00230279347755192,0.013680717706264715
1232.422588753902,0.023555377903187364,0.010217949692564681,0.013337428210622683
1237.625932029617,0.01277616631095162,0.006448277604697831,0.006327888706253788
1238.8129840413403,0.00670077731530676,0.0002357915677826083,0.0064649857475241514
1256.4308493428769,0.00514248646296634,8.797339551432712e-06,0.005133689123414907
1261.048738268074,0.027244652817447503,0.0024652476562872223,0.02477940516116028
1277.1051798859023,0.013677038015468648,0.005098676300329912,0.008578361715138736
1354.1050077827185,0.025941695856760864,1.2547257050614688e-05,0.02592914859971025
1358.0516996829992,0.013829758475355636,0.00029751693545677433,0.013532241539898862
1359.599600408768,0.025758390674672577,0.0007509535138049411,0.025007437160867636
1367.939156926652,0.02334603197974051,0.0013238484477650998,0.022022183531975412
1371.7148042350175,0.058389183592971294,0.011690840357503838,0.046698343235467454
1373.3710124297336,0.022387028725903403,0.001102517545082218,0.021284511180821183
1396.3448462606848,0.002603706181447957,0.00012344195846223732,0.0024802642229857196
1397.85397201045,0.0019629966379018223,1.4086408278149004e-05,0.0019489102296236735
1399.4562396747244,0.006600401084551701,0.0015783928340866037,0.005022008250465098
1411.7628306702693,0.0017984268419663362,0.0010627613140939108,0.0007356655278724254
1413.126670899987,0.0015327114941626906,0.0006162836834775736,0.000916427810685117
1415.954798315028,0.001981874647502646,6.664609150581332e-06,0.0019752100383520644
1457.4210729664908,0.0042393490462167465,0.00018789274412469217,0.004051456302092055
1464.6660800987997,0.025447339761298222,0.00024233685407516002,0.02520500290722306
1467.025322722306,0.053306510765177374,0.0031006209337196044,0.05020588983145777
1482.5066784559228,0.048204065421356024,0.00011124217438531775,0.04809282324697071
1483.9073453330561,0.02389357967151474,1.9480748551372942e-05,0.02387409892296337
1484.9873312486945,0.03237296726500469,0.0005696966383479005,0.031803270626656784
1489.165691298495,0.013866922080007968,0.00032033407735303535,0.013546588002654932
1490.1790218430003,0.011618870283224746,0.00012163920753442768,0.011497231075690319
1490.2981801681235,0.007960848529527987,0.0005192720486804941,0.007441576480847492
1496.1370818186178,0.058572576954461414,7.6108982208269e-05,0.05849646797225314
1496.9664993128254,0.02610562949863784,0.0006559477854517332,0.02544968171318611
1500.0775478429493,0.04675723896280745,0.001525958750217535,0.04523128021258992
1503.0548689137065,0.002027666364034743,4.0553123077630576e-05,0.0019871132409571123
1506.1560568762993,0.009752471478818608,0.00011277801106362718,0.009639693467754982
1509.3723672732438,0.005298134997328985,3.149263938615041e-05,0.005266642357942835
3019.852731615347,0.4419955429082101,0.347287633845614,0.0947079090625961
3030.2434800450706,0.24902737617005882,0.09684264266533953,0.15218473350471928
3031.633941632272,0.8747267467123981,0.8047882366392493,0.06993851007314887
3039.94180431385,0.5273953755823236,0.47153387088884463,0.05586150469347896
3042.0355951673737,0.32102991901344563,0.12811377401044127,0.19291614500300436
3042.456720702245,1.064327297129993,0.9981631211933976,0.06616417593659554
3043.8199986431755,0.08555291098250016,0.023265469615971972,0.06228744136652819
3044.4240561053257,0.3399629171520839,0.30981216364544073,0.03015075350664316
3045.0574452884284,0.045292020077070276,0.018364328834653602,0.026927691242416674
3048.7582339939745,1.7592146222546754,1.6820738298446307,0.07714079241004458
3050.190397182982,0.6146838148928271,0.5203784368069307,0.09430537808589634
3050.7549881002496,1.3169602547774513,1.1570726955635064,0.1598875592139449
3077.798278967276,0.15968862031852343,0.07878688978469442,0.080901730533829
3081.6061405558685,0.22212112717132368,0.011542972748346841,0.21057815442297684
3089.231705498685,0.17062205978071343,0.04038070075342826,0.13024135902728518
3105.219330696138,0.16312832328454074,0.06987778147416639,0.09325054181037434
3108.131157697043,0.12365717960964373,0.051113550918603416,0.07254362869104031
3110.0102246074944,0.0746957406855034,0.006833307113409728,0.06786243357209368
3111.972581224863,0.49491127119701606,0.12894498709501864,0.36596628410199744
3113.600130281093,0.6153945912636772,0.21330480781665326,0.40208978344702395
3115.969415188308,0.6026079424231413,0.060684544013937206,0.5419233984092041
3119.451265760513,0.2545868867835477,0.009004650277959714,0.24558223650558794
3120.510182573691,0.26108404809092617,0.007372622895882752,0.2537114251950434
3120.5236836259014,0.39331292565279,0.009306761993831255,0.3840061636589588
3126.3798605249135,0.3124381379809157,0.0010260669563887594,0.31141207102452695
3128.207437833596,0.17124121937178763,0.0023001003564530136,0.16894111901533462
3146.770409207387,0.22928367094951677,0.03749728578743714,0.19178638516207963
