frequency_cm1,total_intensity,isotropic_intensity,anisotropic_intensity
2.0617076193392903,0.0,0.0,0.0
0.7494021993541471,0.0,0.0,0.0
0.5296804268317408,0.0,0.0,0.0
8.849243999797837e-06,0.0,0.0,0.0
2.2829905429124398e-05,0.0,0.0,0.0
3.078545405146296e-05,0.0,0.0,0.0
9.697785670941043,0.009541107262923607,7.0769138400605885e-06,0.009534030349083546
17.556237300685485,0.009436385360657815,0.00028093379576268494,0.00915545156489513
28.294403517995917,0.018296771178390705,0.0019023530200861219,0.016394418158304582
29.22185737524194,0.0024494869439763145,1.8216245615189872e-05,0.0024312706983611247
39.60791074790799,0.01983531394143791,0.0032387907231323397,0.01659652321830557
43.2957910945791,0.015759007198125258,0.0018746471519391532,0.013884360046186104
52.18691840067711,0.00821137978287891,0.0015523599217225096,0.006659019861156401
79.08724445148722,0.013139046194570202,0.0029004869454422005,0.010238559249128
89.79233339549845,0.013354367388278391,0.005548206589704746,0.007806160798573644
95.6941874520177,0.004518396846023875,0.0016732671344011436,0.0028451297116227313
108.21939546610564,0.006068886366591829,0.0024410690877590515,0.0036278172788327774
117.31228662219966,0.017987462413074452,0.004332075554009275,0.013655386859065177
133.29281086021876,0.05102712230293008,0.024853614081805506,0.02617350822112457
144.89918406544024,0.0004484392929079363,0.0001444819422789958,0.00030395735062894053
157.30111575322925,0.0023721010651901247,0.00022307208925877764,0.002149028975931347
163.5344084879321,0.06594231757397256,0.0168048168392027,0.04913750073476987
174.16351792228323,0.002596818141404689,0.0007290850477854192,0.0018677330936192698
184.7603897172103,0.0024320591486326785,1.2607834361460588e-05,0.002419451314271218
212.25159976760582,0.028702276321702278,0.007714761253023939,0.02098751506867834
214.42174219008555,0.09977443905976788,0.03765176930893798,0.06212266975082989
246.22484642085305,4.2486734462441094e-05,5.058708700866237e-06,3.7428025761574855e-05
264.8611502248421,0.001803731369292837,5.8904691085734826e-05,0.0017448266782071021
301.39447048595923,0.030406881340206797,0.012347601695916333,0.018059279644290466
330.82327576645497,0.06033671954820279,0.019581677753716206,0.040755041794486586
368.70906551433256,0.002658742714145325,0.0016029640344377924,0.0010557786797075323
384.24244020275086,0.011059299836832409,2.226274855557498e-05,0.011037037088276833
419.4414773548464,0.05540264630921765,0.01970661819469242,0.035696028114525234
424.84612667071013,0.000894964592779329,0.0003056878815086787,0.0005892767112706504
431.1822384991701,0.010882365196789706,0.0034624628833518924,0.007419902313437813
458.6268175583407,0.010678076011006551,0.003765950826018987,0.006912125184987564
473.8015419075437,0.0032963206303505185,0.00020900233459064432,0.003087318295759874
500.69340237646463,0.0014677883625031278,8.037888958638961e-05,0.0013874094729167381
510.5775139655538,0.02553629084845014,0.012461147498926286,0.013075143349523853
524.8420389423422,0.010694311640775453,0.000600282886704802,0.010094028754070651
544.9260925752368,0.004962642690577177,0.0019250043274330404,0.003037638363144136
569.9039757344729,0.016311313866931996,0.0006778403567048342,0.01563347351022716
580.2076614028982,0.003928753105237695,0.0002059758872064968,0.003722777218031198
618.2978651536251,0.020858289889294803,0.014201387675787273,0.0066569022135075295
650.0957913907541,0.05582467693934813,0.0020315258525339945,0.05379315108681414
666.6132037269327,0.012962485831323142,3.093288457714207e-05,0.012931552946746
729.3755580097251,0.0002743942979197407,2.220055465659696e-06,0.00027217424245408104
737.364624384542,9.038956374948896e-05,2.6385053064253677e-05,6.400451068523529e-05
743.051416760808,0.13796782189006984,0.0768037988715291,0.06116402301854075
751.859762957176,0.03252923244923754,0.017244440917591915,0.015284791531645626
760.9916720644839,0.017556879010984086,0.010892488997726466,0.006664390013257618
763.6700883164416,0.0012676348377901076,1.084228863499769e-07,0.0012675264149037576
811.9522395662734,0.00032632017677245334,3.548912304999391e-05,0.00029083105372245945
824.3874749046121,0.14161481037579285,0.11351891097417378,0.02809589940161907
838.4349618967713,0.002388938246742691,9.712967538700266e-06,0.0023792252792039907
853.0925433515587,0.08019025119529281,0.0395088519708419,0.040681399224450916
868.4961392492314,0.016196311974256805,0.006442439132721086,0.00975387284153572
873.9563551024052,0.029970222008374642,0.00016501222688348563,0.029805209781491156
875.5733123432342,0.05486677134755678,0.03947766404857542,0.01538910729898136
884.1010801687049,0.0023602351510787906,0.0011216155405697336,0.0012386196105090572
908.6547222288051,0.020315719949821117,0.013419584242273326,0.006896135707547791
916.4670988798373,0.07984397081765686,0.004251780623859007,0.07559219019379786
961.0537685579309,0.0007732941581384203,0.0003724191600780328,0.00040087499806038755
975.1054757055742,0.011379718760386789,0.004456546715151441,0.0069231720452353485
995.1160440663398,0.0031342629510191,0.0002372640838620722,0.0028969988671570276
1006.8094801708291,0.04507893134013527,0.017033836143762755,0.02804509519637251
1015.7739918793097,0.020546938940715118,0.008253203328896563,0.012293735611818554
1021.8990852070306,0.005610452536779412,0.003842910459953051,0.001767542076826361
1032.351743426958,0.3117211207036686,0.12494904669706532,0.18677207400660328
1032.843582419771,0.008932477486163456,0.00024678570036947294,0.008685691785793983
1035.7766425824043,0.003531457632543339,0.00173387533597867,0.0017975822965646691
1038.510408711749,0.02438816177197456,0.01715530203789757,0.007232859734076989
1041.8433464046095,0.0039703935170626575,0.0005116633593613137,0.003458730157701344
1066.69739186818,0.00908519871292233,0.001091674132048719,0.007993524580873611
1086.0915867191338,0.056167116352667926,0.0034607113601054723,0.052706404992562454
1089.7072276381932,0.009795821274252933,0.007652188512926364,0.0021436327613265685
1095.3765025059668,0.04011459775962498,0.002770643750293729,0.03734395400933126
1105.4677685695374,0.03345401582125117,0.008486316082352296,0.02496769973889887
1137.580073208755,0.007049966703642665,0.0006007131178125394,0.006449253585830126
1141.3438188604862,0.16190827939176522,0.08062501038084077,0.08128326901092446
1157.1614084238977,0.20241067019300635,0.12104490733636494,0.08136576285664139
1188.6188623628566,0.0036313816894032198,0.0003578586168132439,0.003273523072589976
1195.9972307791288,2.6201395455555847,1.420585605819266,1.1995539397363184
1199.6357443645775,0.42495250660264006,0.17330720090372198,0.2516453056989181
1218.8178489193658,0.005521497389996196,1.179973064095996e-05,0.005509697659355236
1232.3585241046567,0.08793334336800651,0.05883494210610852,0.029098401261898
1236.6196280968445,4.248214039152166,2.0208696020933465,2.2273444370588193
1241.5655743324687,0.022992133421241952,0.00858998507286204,0.014402148348379912
1260.4985418692909,0.0023773658650658737,1.450263094314321e-06,0.0023759156019715596
1281.9344793712996,0.08213377476903849,0.040062012592529554,0.04207176217650893
1286.104804993293,0.11204496947389357,0.027102396111426532,0.08494257336246704
1292.540709928839,0.1354170218351972,0.04247029384876549,0.0929467279864317
1295.7974304768595,0.3291868642422119,0.1583723455763369,0.17081451866587496
1299.3515981937367,0.006385036622147421,2.857579241496804e-05,0.006356460829732452
1322.4077163999261,0.050044190296722066,0.00010305953129045442,0.049941130765431614
1327.1882951579946,0.05807373359604873,2.4172267214675104e-09,0.058073731178822
1331.8462534792134,0.011490072607541015,0.000815919925269946,0.010674152682271069
1334.282596169419,0.0074423521163157974,2.544511424092571e-05,0.007416907002074872
1336.426888986901,0.12057823034708819,0.054632188770018075,0.06594604157707011
1336.5511071042122,0.03434742148538685,0.024795969275257495,0.009551452210129357
1339.0425194330642,0.0006084558881284136,0.00032126255909501394,0.0002871933290333997
1342.2118421865741,0.078889898464892,0.0425739402529389,0.03631595821195311
1381.2000248485679,0.005790522012966529,0.0006183277962174741,0.005172194216749055
1409.8296824203521,0.00045946549661039023,0.00017113990748302671,0.0002883255891273635
1413.4892897250536,0.0018835878475966907,0.0013752442381690958,0.0005083436094275949
1417.462726321584,0.012677198676317527,0.0030624372403078148,0.009614761436009712
1421.3794927815022,0.010040140318270822,3.873897388864232e-05,0.01000140134438218
1436.4621935351724,0.01230994625058022,0.0004252046529368961,0.011884741597643324
1459.9437992358057,0.03350994066536642,0.011358518390576808,0.022151422274789608
1475.7964227111495,0.6062108246403206,0.2816277123485653,0.3245831122917553
1480.9349082786243,0.00662263678945117,0.003780499224699846,0.0028421375647513236
1482.1297650542397,0.03032427810357644,0.0018603516321532953,0.028463926471423144
1485.0522570508404,0.11111205107952746,0.009795507400678666,0.10131654367884879
1489.439916667149,0.0016135699622990159,0.0012310993024136133,0.0003824706598854026
1493.9178114783356,0.026735440633511482,1.7887649137881085e-06,0.026733651868597694
1495.6059986906318,0.024997245304007234,0.001713146933282814,0.02328409837072442
1501.199195421092,0.0018826644389499177,0.0005173733041556638,0.001365291134794254
1505.739523657799,0.004442801368876387,8.009982274734327e-06,0.004434791386601652
1516.3476210344493,0.007072483007429285,6.616947733824742e-05,0.007006313530091037
1555.203838598857,0.5983794019927295,0.24105979910349695,0.3573196028892326
1566.966978762373,0.058758997074887104,0.01941369634852511,0.039345300726362
1638.4001315417654,0.0845175729124963,0.024914293764714275,0.059603279147782025
1650.443308740469,3.1235625810038807,1.0367901782290914,2.0867724027747894
1681.6239580869433,15.11958504274655,5.525629837148853,9.593955205597698
1690.5736252233505,0.15933404619419084,0.003076689027381344,0.1562573571668095
1749.1139141359722,11.91267099658933,5.075660722908252,6.837010273681077
2392.2602788842023,4.473548112209192,2.0726052986478845,2.4009428135613073
3019.5581315271647,0.2755922857364575,0.25133260630862725,0.024259679427830264
3024.186208005586,0.36309047735661576,0.32972957480116716,0.03336090255544861
3026.7783486563008,0.6016662980230358,0.5985903062991895,0.0030759917238463064
3028.7978835571853,1.5341582684032795,1.514072158117858,0.020086110285421593
3036.6178372646305,0.07344004052312164,0.05497761213780894,0.018462428385312698
3041.9320988996037,0.47781267505501657,0.45196604578341626,0.02584662927160028
3044.9367589536555,0.2594519258455021,0.18810541330273206,0.07134651254277002
3046.801249199548,0.8345246293336377,0.00034711059311251285,0.8341775187405251
3050.0053499970986,0.8895059973450353,0.881950667617244,0.007555329727791279
3053.5375778361636,0.030075977035689018,6.127327482053552e-05,0.030014703760868483
3061.802936412853,0.3347868500125118,1.1400955273373453e-05,0.33477544905723844
3063.6087903997923,0.3747228017584683,0.36065352183120647,0.014069279927261827
3064.1879722525523,0.07544376277631953,0.0026433931226421685,0.07280036965367737
3077.187791477508,0.04877021697093678,1.7525958511153274e-06,0.04876846437508567
3087.8275592831037,0.037629039304270626,3.1942805742215157e-05,0.03759709649852841
3111.318164468436,0.03344464003812772,0.0001002376093665104,0.03334440242876121
3113.082648819013,0.13957351171997362,1.904021942529766e-05,0.1395544715005483
3121.1344707073663,0.40839869738788215,0.06224549843076185,0.34615319895712027
3191.3339967207376,0.24584752701252055,0.049872267855892057,0.1959752591566285
3213.9656302460016,0.1268722897799946,0.007079082477119726,0.11979320730287486
3215.143751094532,0.31868073106548844,0.04185647109189707,0.2768242599735914
3216.640221831015,0.30991920742727863,0.029164305675603484,0.28075490175167517
3229.354156409984,0.42355560530467184,0.3240988304526107,0.0994567748520612
3230.4081972444114,0.26686018273917694,0.188520850486181,0.07833933225299596
3232.875006573395,0.9990383648903042,0.7835779657425901,0.21546039914771412
3238.1201960763588,0.7366295279121672,0.4708528846962322,0.26577664321593497
