frequency_cm1,total_intensity,isotropic_intensity,anisotropic_intensity
3.0018175901721458,0.0,0.0,0.0
0.22928534168476503,0.0,0.0,0.0
6.804577399359307e-06,0.0,0.0,0.0
2.4198028230599947e-05,0.0,0.0,0.0
3.569682902934196e-05,0.0,0.0,0.0
0.3782212973708444,0.0,0.0,0.0
8.407000817745752,0.00044391550217769604,1.5565791915329788e-07,0.00044375984425854275
13.488583317503616,9.662062299274385e-05,2.0581332602854216e-07,9.641480966671531e-05
16.823523160269293,0.003049095363618856,2.2569783940843641e-07,0.0030488696657794473
23.275217213704813,0.00013305191179706499,1.5105268805946346e-06,0.00013154138491647035
28.180471989838235,0.0013583290693287222,4.411190591779834e-06,0.0013539178787369424
39.18735811757126,0.0012052936846846513,8.642823569020169e-07,0.0012044294023277492
44.905645323216426,0.0002768726286490627,1.2250451876924672e-05,0.00026462217677213805
49.04339794368386,0.0002809570225517878,7.452558487930608e-07,0.0002802117667029947
66.31993246561854,0.0023148417419011735,2.9462474510655747e-05,0.002285379267390518
74.04014747597593,0.0017972037817670242,2.0066972686403154e-05,0.001777136809080621
78.46444759032909,0.0003406427860788682,8.855690306092227e-11,0.00034064269752196515
82.80243255660541,0.0011606098832207964,1.3545681450700251e-06,0.0011592553150757262
97.77719445830581,0.008324637283090302,0.004863194803484718,0.003461442479605584
103.29481300310188,0.0018556441127418472,0.0005018778950619782,0.0013537662176798689
110.97823381389598,0.00013407899244993017,3.829252870747459e-06,0.0001302497395791827
123.37923857817812,0.0005755391052446428,7.966840310259611e-05,0.0004958707021420467
133.7345019662774,9.345457984254148e-05,4.953009731249131e-06,8.850157011129235e-05
138.16417906746184,5.987629016999119e-05,1.2681945174478097e-05,4.7194344995513097e-05
157.38270517119406,0.005201102455884325,0.0035749327131120155,0.0016261697427723098
159.19864752214633,0.0008015816263899651,0.00040647842145491317,0.0003951032049350519
160.81583596404076,0.002045725409930046,0.0012144652218776491,0.000831260188052397
173.37641906286504,0.000503246751974582,3.4772918326843057e-07,0.0005028990227913137
175.46147892982358,9.06359359280886e-05,2.674825601923467e-05,6.388767990885393e-05
176.03221880517927,0.00012413125715464326,1.6128535250152516e-06,0.00012251840362962802
227.043783737775,0.0005137867033738101,2.67774116112189e-09,0.000513784025632649
236.14445873705134,0.0010420543417248098,3.0281332414848757e-05,0.001011773009309961
245.5218652770598,2.268517358851296e-05,2.3241838574209755e-08,2.266193174993875e-05
260.65570407348895,0.00044379371327253993,0.0002089197616554199,0.00023487395161712004
297.76518679249097,0.00027340529392743393,9.659545109511594e-07,0.0002724393394164828
327.2764095151848,0.005170266174621884,0.004256518035745236,0.0009137481388766489
370.17748393961114,0.0016151206920103274,0.0013441651921238874,0.00027095549988644
389.3975856519708,0.00426583449026709,0.0004051171128445879,0.003860717377422502
410.77305331245276,0.0007579409725630678,0.0005617595295572357,0.00019618144300583205
443.7686393479212,0.0003313023643960466,2.951066426308675e-05,0.00030179170013295984
474.2462340977126,0.0010582335642416653,0.0004653494775439944,0.0005928840866976709
498.00355140195546,0.0009192752307644034,0.00020640822232045867,0.0007128670084439447
517.6111620622434,0.00019594638176970516,3.5576612016448322e-06,0.00019238872056806034
519.0280168335271,0.0015696474417356727,0.0006938945701937037,0.0008757528715419692
547.5550713392273,0.005358929393501973,0.0005672980795147462,0.004791631313987227
604.1022049929115,0.0087025088018393,0.00010257311861852715,0.008599935683220773
634.6751687946439,0.007077785160480818,3.165267369563327e-05,0.007046132486785185
639.9741984936198,0.0039739522339026405,0.0017311331798573917,0.002242819054045249
727.8122782732785,5.463173713470708e-05,3.224557640423157e-07,5.430928137066476e-05
728.3790697785195,5.627640565604988e-05,1.2343412245833063e-06,5.504206443146658e-05
730.1379211771847,4.369820942326218e-05,2.5623457076215637e-06,4.113586371564061e-05
733.5765853151812,0.0005067576361580261,3.874058802602836e-06,0.0005028835773554233
739.7385382536494,0.0006601506562306577,2.806627017731039e-05,0.0006320843860533473
749.8179551088784,0.037177122496863696,0.03557583297960749,0.001601289517256212
751.4101071343649,0.015841147213063164,0.014512562616670267,0.0013285845963928976
765.2848764122044,0.002505274139495375,3.921516227319086e-05,0.002466058977222184
770.4559738153077,0.00197469066841327,0.0009311385874066369,0.001043552081006633
794.912545665896,0.0030435173634078367,0.0014330305502802936,0.001610486813127543
825.915762685067,0.004434590061245535,0.003070231626904853,0.0013643584343406819
859.3689303018821,0.008426203512610468,0.006148881660513283,0.002277321852097184
892.3617702017574,0.009919467771706377,0.008879111331035595,0.0010403564406707812
908.2482087760314,0.03328324921951839,0.020399380744104807,0.01288386847541358
925.5284353635085,0.007665258367844886,0.006951621719595907,0.0007136366482489794
953.2677695969195,0.006505792366582991,0.0027143293085250338,0.003791463058057957
969.4279578316956,0.0029631470070096413,0.000524429823840983,0.002438717183168658
1001.6770105332591,0.0007126613679665214,0.00040698290144723225,0.0003056784665192891
1004.4529159594424,0.0011174286594768143,0.0010021401824362509,0.0001152884770405634
1009.9641789302316,0.0006900541657894174,8.332889609791806e-05,0.0006067252696914993
1025.144372656158,0.0020419148331862584,0.00022639888522756293,0.0018155159479586954
1035.2611229565662,0.0020519085811287145,0.001537380730741207,0.0005145278503875072
1037.8842225381848,0.003735469320303497,0.0026412241334493286,0.0010942451868541686
1053.0345173363728,0.0012282941593573088,5.5594259066477265e-05,0.0011726999002908316
1061.7069738530772,0.0002906740207826459,0.00010414313832410663,0.00018653088245853926
1063.2807362211802,0.0029080579111134502,0.0012469666454683062,0.001661091265645144
1073.722256106568,0.009074249205651318,0.003442020999335687,0.005632228206315631
1084.1493049302233,0.0009059401856172475,0.00022398237430793638,0.0006819578113093111
1087.7938848863175,0.10699574134227939,0.0011315532831631156,0.10586418805911628
1089.0142289045414,0.04052529805097826,0.0007584080908275897,0.03976688996015067
1090.2111538485126,0.00030191473044795475,5.129169466693109e-05,0.00025062303578102365
1092.483909608064,0.0001688183007089245,4.684674187433511e-05,0.00012197155883458938
1092.8626520850469,0.005738688160294119,3.528815413834333e-06,0.005735159344880284
1097.747471524658,0.003875851919004565,4.867080761384043e-07,0.0038753652109284266
1129.0570704111121,0.03689188391898085,0.013778275662459219,0.023113608256521635
1132.7759191895236,0.04273245717157975,0.02365459663277205,0.0190778605388077
1158.1878275276038,0.30316734937864465,0.17702390002113078,0.12614344935751384
1164.0491915571909,0.015632597878883797,0.0026460240407094773,0.01298657383817432
1196.321315007011,0.011202691513161521,0.0063777366528202225,0.004824954860341299
1205.4234436238132,0.01434161226818876,0.0008101573646398749,0.013531454903548885
1216.4708386761845,0.0008693687927940276,0.000302978373699058,0.0005663904190949696
1221.290019754587,0.0031341882919898013,0.0006958476832614144,0.002438340608728387
1237.5041481259188,0.0009096119236179399,7.033918125125273e-07,0.0009089085318054273
1242.3855724754785,0.002073129748221111,0.0005589019692672882,0.0015142277789538226
1256.583019513923,0.004368874612851477,1.5042072776276273e-05,0.004353832540075201
1263.9452024271561,0.002198336937175994,0.0005225995471044483,0.0016757373900715454
1271.8429874431909,0.009626059430722785,4.918536430369299e-05,0.009576874066419092
1282.5113997205126,0.00554591979119394,0.00043024563393775813,0.005115674157256182
1288.0984705370417,0.0044329740992208756,4.5945937502972756e-05,0.004387028161717902
1297.2468856828762,0.0029340247376203428,0.00014210240735741688,0.002791922330262926
1307.606085886158,0.0029558567775906,4.5286401073204165e-06,0.0029513281374832796
1311.2769688045014,0.0017425661113129362,2.9553425722444047e-06,0.0017396107687406917
1320.5021831412498,0.00930751853937383,0.00010718575749635692,0.009200332781877473
1324.3848096077068,0.18572615248586755,8.559441101612786e-06,0.18571759304476593
1328.2841941465672,0.001169189104684845,2.5543666253277963e-05,0.001143645438431567
1329.8291533490765,0.001209350731646239,0.0001531809418089954,0.0010561697898372436
1331.5167304510983,0.0010440047379985007,2.282989942763012e-05,0.0010211748385708706
1333.5774617984682,0.021220215573797205,2.2023289524977848e-07,0.021219995340901954
1336.068026441956,0.0008429024226936168,5.6153983810643814e-05,0.000786748438882973
1337.6495208999495,0.00014111810968446775,2.0691598048442794e-07,0.00014091119370398332
1339.2362970387833,0.0019381926813251832,4.128799888517397e-05,0.0018969046824400093
1344.3366189994522,0.011568223043228737,5.126185478522855e-06,0.011563096857750215
1352.4576377746782,0.0008962247809590225,7.938293578355063e-05,0.0008168418451754719
1372.1780627749883,0.001449958621842913,0.0001467199059497891,0.0013032387158931238
1387.2699276902993,0.0035025002276955703,0.0001323577241905112,0.0033701425035050593
1392.7777764400917,0.007078033131836704,0.00034176599957828945,0.006736267132258415
1404.3332753954937,0.0008495193187056271,0.00031626266261402863,0.0005332566560915984
1412.1154647619558,0.0012431915971526126,0.0010358975103259558,0.00020729408682665685
1414.3784695319941,0.002511574045662634,1.0953803370008547e-06,0.002510478665325633
1419.539641743763,0.004166782745944737,0.00011877589543557176,0.0040480068505091655
1420.1678129294894,0.010753488933932676,6.090390415768443e-05,0.010692585029774992
1421.6336911527687,0.00012750768951311814,4.046292397592954e-05,8.704476553718859e-05
1422.6668444121563,0.0015301750138219654,0.00022231910527766057,0.0013078559085443048
1424.1458286974257,0.013406655133354288,0.001262756672086928,0.01214389846126736
1479.082841871918,0.0025490936568004926,0.0004492570605535411,0.0020998365962469514
1480.0251789778104,0.00016385343862539077,4.8032317749733565e-05,0.00011582112087565721
1480.332613067601,0.00042052480355430375,0.0002025434510308647,0.00021798135252343905
1481.5107049190472,0.007900022411646862,0.00035030994508778655,0.007549712466559076
1482.0978516354132,0.006911417240926029,0.00024285541741956548,0.0066685618235064635
1483.4930641902854,0.0013390513406246357,0.0007737830535216524,0.0005652682871029834
1484.2785752628092,0.02000429949301987,0.003950991170373518,0.016053308322646353
1485.139877878105,0.33001164646667147,0.028282421657825154,0.30172922480884634
1487.0071033513032,0.00990951272640199,0.0001491336111771492,0.00976037911522484
1490.0394937608087,0.010700051303376968,0.00048091507224328644,0.010219136231133682
1493.3369581244415,0.0018436461390782207,3.756003717067922e-05,0.0018060861019075416
1493.698864246433,0.027049045583388786,4.6473320237817483e-07,0.027048580850186407
1496.718618896946,0.003138601397310055,0.0001258440711387428,0.003012757326171312
1499.9583858042615,0.0008470172223234857,0.00010088895651404625,0.0007461282658094394
1502.903042165977,0.0007983511480535472,1.9287464362654847e-10,0.0007983509551789035
1505.1860634979275,0.0012140417269594877,4.6851161690680175e-05,0.0011671905652688075
1506.4226352656735,0.000837992861018364,1.4336664822694778e-05,0.0008236561961956692
1843.9799981361996,0.03330694694396017,0.007518802874642281,0.02578814406931789
1860.7456288232393,0.07270640052827909,0.060451134873874955,0.012255265654404135
3021.2531138134946,0.018943153366970264,0.016827608986307047,0.0021155443806632175
3021.5479348243607,0.0030409004933506017,0.0028277166696072486,0.00021318382374335324
3022.532999602426,0.05983984600908948,0.05323223102507643,0.006607614984013053
3023.1768950460496,0.04021514062886409,0.037639876732541586,0.002575263896322504
3024.289373554586,0.49262221530505046,0.46791713720230227,0.024705078102748218
3024.79453446554,1.6436945578115123,1.6227080275658683,0.020986530245644015
3026.0458556538324,2.6858553881296796,2.6483371219838023,0.03751826614587739
3027.7081242840145,0.3779090145264906,0.37646487505703724,0.0014441394694533608
3030.2108760071355,0.7126433124631217,0.6947340666950518,0.017909245768069956
3032.93474570769,0.11138037893795523,0.10847208877982939,0.002908290158125837
3035.580230182083,0.4058445616857843,0.375402526709603,0.03044203497618129
3038.0573152591987,0.0378999460000901,0.0003039345771432711,0.03759601142294683
3040.5291028931006,0.27681472862997525,0.17676641607196958,0.10004831255800566
3041.2151049783547,0.2801550026018266,0.24881591492697014,0.031339087674856415
3042.855481022231,1.5459939634895354,2.701793091796498e-05,1.5459669455586176
3043.8144617633884,0.024929317023645273,1.7193325556206504e-05,0.024912123698089067
3045.567332220989,0.41695341252194884,0.00026114787320665784,0.4166922646487422
3048.3765406217353,0.014798942931446766,0.0007849704583362854,0.014013972473110481
3050.1463882387975,0.9193950802207836,0.9121557707213688,0.007239309499414915
3052.007551977988,0.17675885490374085,0.0024804067041906555,0.17427844819955018
3056.4668451231055,0.00721964000419581,0.0042399209269290165,0.0029797190772667933
3061.654869366091,0.1265853265485995,0.007165484861214484,0.11941984168738502
3067.061852162135,0.017107225988712182,0.016765714898961056,0.000341511089751126
3072.1075557423064,0.19504204062473063,0.0849125461331525,0.11012949449157815
3074.5935058583577,0.28765489904363006,0.26779476059840973,0.01986013844522034
3077.9955950309786,0.01866524251348064,0.013951438358137117,0.0047138041553435196
3082.5601049473553,0.07946367657084176,0.0006415082715964984,0.07882216829924527
3086.653443090355,0.0011505303552668787,1.1278339330647986e-06,0.001149402521333814
3089.5951611762903,0.025812785925035348,0.00017371995685874493,0.025639065968176604
3094.1321823250873,0.07285813038723624,0.0008694779352449183,0.07198865245199132
3107.33798490956,0.2699949813843643,0.1557259223423989,0.1142690590419654
3113.1374002761836,0.12953591937547979,1.8645559043988963e-07,0.12953573291988935
3121.276402696925,0.40921374991511017,0.062227310146354325,0.3469864397687558
3126.2554551541866,0.03895164066206545,0.007832666543984254,0.03111897411808119
3791.9190556743893,0.47928695993831805,0.2744373579005245,0.20484960203779357
3798.1774541195073,0.4679254982737576,0.27310364224308054,0.1948218560306771
