frequency_cm1,total_intensity,isotropic_intensity,anisotropic_intensity
0.5114942773355646,0.0,0.0,0.0
3.3562903686741434e-05,0.0,0.0,0.0
1.2854242693975936e-05,0.0,0.0,0.0
2.4493168399297444e-05,0.0,0.0,0.0
0.1637184065783562,0.0,0.0,0.0
4.701346964697095,0.0,0.0,0.0
19.14577831340766,0.0035328609494208784,3.1172304888335165e-05,0.003501688644532543
27.56323406173537,0.003326216336227906,2.95631896221399e-05,0.0032966531466057662
36.17763764396979,0.004339357548271445,3.5997656269777783e-06,0.0043357577826444674
48.051372403172,0.0016006981951921396,4.728234849366109e-05,0.0015534158466984785
73.60507082454065,0.0007705892257294903,5.8677368254832004e-05,0.0007119118574746583
76.19320937539854,0.0029971764221600255,0.000345564595137053,0.0026516118270229726
101.04501778289405,0.0001580471808649976,1.1188658458681773e-06,0.0001569283150191294
119.48062812618645,0.001865081716753145,8.167801096099222e-05,0.0017834037057921528
141.44887087074113,0.004128949303489322,0.0005260001547104634,0.003602949148778859
149.2162882383547,0.0023012793202383877,0.0013266162510490657,0.000974663069189322
155.22594083167493,0.00019598624720109468,2.880163060840435e-05,0.00016718461659269033
166.79386037378876,0.0004871020281428214,0.00022491176974432313,0.00026219025839849827
188.52393275754793,0.01663363322715057,0.011824646746597965,0.004808986480552608
211.26699667867825,0.002662315503863923,0.0009976218795618651,0.001664693624302058
245.86818398216798,2.693037806056229e-05,5.774075319847595e-07,2.635297052857753e-05
262.02176566157834,0.000984521526302426,0.0004953439698838324,0.0004891775564185936
338.22698620177215,0.0015277016884598774,2.9457641459735565e-05,0.001498244047000142
368.6246268668603,0.0016908938345532557,0.00013755080103524127,0.0015533430335180143
429.9461482985435,0.004471201243429654,0.002875798927479523,0.0015954023159501307
466.790912571153,0.002106511081304052,0.0015907249847213925,0.0005157860965826595
489.05803980018226,0.00034605751691849795,1.3712927755780402e-05,0.00033234458916271757
522.7386861887786,0.001524113968187496,0.0002569454080990725,0.0012671685600884235
594.9579304911491,0.006542087329408731,0.0003536350455618074,0.006188452283846923
658.0363633538357,0.03547528735843069,0.023512517817777735,0.011962769540652955
728.620423391665,0.0001440171282415539,1.0787795390097814e-05,0.0001332293328514561
732.039105765339,0.0004843599050996331,2.131596156265941e-05,0.0004630439435369737
738.6332879209106,0.004269038747985835,8.23853156125182e-05,0.004186653432373317
747.2404628861292,0.0016966115155254303,0.0002024557506376315,0.0014941557648877988
775.5308543382561,0.0005540637615781442,8.099239633180787e-05,0.00047307136524633636
824.1817807209692,0.0008061228169862789,1.323834378537116e-07,0.0008059904335484252
878.7280468240012,0.003876680254326052,0.0010347063251371312,0.002841973929188921
905.3157430571462,0.013432357083272024,0.0056984168055897845,0.00773394027768224
908.5985984674452,0.026440152799089796,0.01486419660580426,0.011575956193285537
941.271018632579,0.009194795271964923,0.0018610326871231846,0.007333762584841738
974.9346035137208,0.004519868952314078,0.002768416214768079,0.0017514527375459997
1006.2401500702098,0.0019166863910773657,5.9016838765007345e-05,0.0018576695523123583
1013.8719193352202,0.01393843044106068,0.008010326292345283,0.005928104148715397
1028.4260811883867,0.003736942550273027,0.0014175579193926103,0.0023193846308804163
1036.6700936318673,0.002029017159318654,0.0008990683737671211,0.0011299487855515327
1049.985073509147,0.0019358976379645937,6.824194109420214e-06,0.0019290734438551734
1066.4041974625397,0.04388671841677966,0.023561482571029208,0.020325235845750453
1079.3887922331294,0.02636022879734052,0.000637334887913072,0.025722893909427447
1089.2461408813997,0.00112405206359786,5.3130370951533e-05,0.001070921692646327
1090.4380658400155,0.049064325285129065,1.122944266795123e-05,0.04905309584246111
1097.3735337724456,0.049563210843562695,0.020579568379101063,0.028983642464461633
1136.1157248056031,0.07565304413773997,0.030180179524929105,0.045472864612810866
1152.2299956648264,0.14731563334798736,0.08308916159205573,0.06422647175593163
1187.3641319668052,0.03612703929666739,0.02695878086521731,0.00916825843145008
1210.983821135386,0.009234190712384753,0.0003427295341949896,0.008891461178189763
1228.835727887952,0.0005137660413551438,3.243802590648056e-05,0.00048132801544866323
1242.5263108657189,0.006268110019014518,4.073900095874786e-05,0.00622737101805577
1263.9953511941774,0.003563758318604971,0.0014176221958455927,0.0021461361227593785
1274.8517049427692,0.010126178288467588,0.0009794278979081087,0.00914675039055948
1292.061177752519,0.005033788610013411,0.001572903738790203,0.0034608848712232086
1304.9712549222695,0.05503242986683915,0.015850387723850067,0.03918204214298908
1313.506981907799,0.002843259721386475,0.0001412599862315307,0.0027019997351549444
1326.6638074621849,0.11404692585352923,0.008479191261762452,0.10556773459176677
1328.7446432671793,0.025611302008606448,0.006203757875951354,0.019407544132655094
1331.0028795096666,0.02933187774946887,0.018882461257792003,0.010449416491676869
1336.5514235835567,0.0028916378386905717,0.0016167519647554275,0.0012748858739351442
1338.32532077108,0.0020565990938343705,0.0011554543685347916,0.0009011447252995789
1351.9156318990704,0.006027417837624475,0.00373682336748806,0.002290594470136415
1379.8488123479142,0.01815559427554044,0.003234543704164271,0.014921050571376167
1398.9992881465532,0.006686642327496244,0.0002443564679981613,0.006442285859498083
1407.074093534004,0.011829601845933338,0.004649495562430713,0.0071801062835026245
1412.5494403514122,0.0009527946065139873,4.547203993942529e-05,0.000907322566574562
1417.25094228424,0.005464756321436324,0.0022839387642470646,0.0031808175571892594
1420.653514559188,0.007074274013627889,3.814697517145291e-05,0.007036127038456436
1473.815654519889,0.054047828234197785,0.009469196563796849,0.04457863167040094
1480.6328979637763,0.005220947119736051,0.001975806626509014,0.003245140493227037
1481.571502629752,0.009359251685263713,0.0010808144282914113,0.008278437256972302
1483.9272200936302,0.13953520770942898,0.010686987329008548,0.12884822038042043
1485.8191481964318,0.019398491893257156,0.00022071193818463578,0.01917777995507252
1490.6647561555244,0.011069993244963855,0.0005419433282209465,0.010528049916742908
1493.7644564498244,0.027089099110979755,3.3529530750545996e-10,0.027089098775684446
1496.7616462839794,0.00435255344922824,1.683972643038894e-05,0.004335713722797851
1502.2319189437087,0.0006310901001764669,1.608769519860496e-05,0.0006150024049778619
1505.942288118994,0.002168362248707819,3.8942664344253526e-05,0.002129419584363566
1741.2527303568152,1.0208940996599465,0.6029660536375313,0.4179280460224151
1816.5969176976776,0.12633491168314123,0.06748253522406003,0.0588523764590812
3022.5928938009192,0.13527033687740547,0.12236802636238837,0.012902310515017107
3023.8096137582897,0.43171549687235844,0.420060838166314,0.011654658706044416
3026.2868760391316,1.5909422804930151,1.5426301876568336,0.04831209283618157
3029.306257279679,0.12959384972982507,0.1287523508328755,0.0008414988969495654
3034.8711195777328,1.0360611355027303,0.9979005327918148,0.03816060271091545
3037.008059529135,0.30182140215214326,0.25323112614546806,0.048590276006675204
3040.9598333673075,0.4977730002392349,0.4609221117045827,0.036850888534652196
3044.568202159452,0.9424830476133216,0.0025175946149965526,0.939965452998325
3044.7856788645663,0.13524135877747698,0.008004744645602552,0.12723661413187443
3049.0781016555898,0.025790884235175615,0.00022709182579316544,0.02556379240938245
3049.988382732783,0.9146567858948527,0.9072549285764381,0.00740185731841461
3056.4708235384087,0.24122277867980393,6.290911037551181e-05,0.24115986956942842
3066.270592170178,0.0011738207045290435,0.00029448659057522663,0.0008793341139538169
3074.762798544028,0.23509468232113118,0.001417754830652387,0.2336769274904788
3081.826539172431,0.006540171339820332,0.0035184858391260113,0.0030216855006943203
3088.400876349285,0.06504706814948638,0.003817176921141164,0.06122989122834521
3100.0214579303256,0.04166044630569407,0.011981261893088273,0.029679184412605798
3112.906087815614,0.12915301623999523,4.69154517658816e-06,0.12914832469481863
3121.1494934541197,0.410149912992179,0.06284829109560157,0.34730162189657743
3163.964485022172,0.25588091251452283,0.1678613386406841,0.08801957387383877
3207.930302281442,0.18819643663248015,0.11522472877443034,0.07297170785804982
3800.6877915597624,0.5846905027700174,0.368312565314472,0.21637793745554543
