frequency_cm1,total_intensity,isotropic_intensity,anisotropic_intensity
1.0795769781741478,0.0,0.0,0.0
0.7527711065455194,0.0,0.0,0.0
2.1632896306865735e-05,0.0,0.0,0.0
2.79274949918501e-06,0.0,0.0,0.0
2.3432892274174948e-05,0.0,0.0,0.0
0.4565224115242599,0.0,0.0,0.0
36.64449057806547,0.02782436797197585,4.95664764281116e-06,0.02781941132433304
40.07010564541965,0.025596072231904677,7.98781279331699e-10,0.025596071433123396
53.31341496642166,0.018790699906627652,4.482478948448674e-05,0.018745875117143165
64.67896859779871,0.01987762796279913,2.2328842813494048e-05,0.019855299119985636
69.44713640225991,0.0016557492509847057,1.626570157724512e-05,0.0016394835494074605
90.14550208829539,0.00177496703056343,2.7669954971095486e-05,0.0017472970755923346
98.71961997582632,0.0020022625209506245,8.316829931686356e-06,0.0019939456910189383
143.71217646689564,0.002215380466899028,0.00028414658910396454,0.0019312338777950633
154.194309667322,0.00394923827353436,0.0009675691377891168,0.002981669135745243
186.4664926680453,0.004409907889516079,0.001551115628333694,0.0028587922611823854
194.8032408614778,0.001675458675136738,0.00021081671512357858,0.0014646419600131595
227.69247198899947,0.004594509675110535,0.00028904434896296423,0.004305465326147571
241.7742123768623,0.005141367408309902,0.000613160730281597,0.004528206678028305
266.1777296456581,0.011540135417694612,0.00588187731521605,0.005658258102478561
303.1448677353635,0.006655287471114385,0.0033019689077918623,0.003353318563322522
330.0004421048959,0.009541511644153115,0.0009389161972142275,0.008602595446938888
387.7518205228744,0.0116931944511418,7.67274434912434e-06,0.011685521706792676
390.1063273361944,0.01149855007132164,0.0005946784139050426,0.010903871657416596
414.5134025915192,0.03121195362181291,0.022481128634943996,0.008730824986868915
435.61777291776735,0.027606598327041494,0.020455601536002916,0.007150996791038579
442.57989989287466,0.004405847760535463,0.0006153382266257459,0.003790509533909717
481.3376526325103,0.01587072003067392,0.010387273478046851,0.00548344655262707
499.9294382045783,0.0033631279764546208,0.0015672603873583923,0.0017958675890962284
523.925235677582,0.013877004096856126,4.126352317304406e-06,0.013872877744538822
527.737316237186,0.01164241030777111,1.7401379050619822e-05,0.01162500892872049
586.2699780390982,0.0007046300737482136,3.892612951445379e-06,0.0007007374607967683
607.7715813760358,0.013097016826776144,0.0012402519403620419,0.011856764886414102
625.2044821521463,0.002714125072587488,4.475305197397874e-06,0.00270964976739009
636.5271658429044,0.003532974059751368,2.0399334594717024e-05,0.003512574725156651
654.2380369308996,0.004834545649251789,0.0003420595762691908,0.004492486072982598
739.5519807215206,0.11588632455616242,0.10739327588916017,0.00849304866700225
756.5639804178982,0.015039886156579531,0.013161578776844922,0.00187830737973461
761.4472888723654,0.0048049658944781725,0.002135185404197827,0.0026697804902803455
766.5622643470276,0.0015000790867777955,0.0011851638514001612,0.0003149152353776344
781.5044174726293,0.006549854423021112,0.0011421432227820547,0.005407711200239057
785.6061209064155,0.020857914137832275,0.0035775370544857644,0.01728037708334651
799.5962593607587,0.003021591664134055,0.0006894532478671942,0.002332138416266861
824.2615544358033,0.006679417792348465,6.764982527100022e-05,0.006611767967077464
864.824418871766,0.0049372255065610075,0.0006253836754656319,0.004311841831095376
901.9163433595617,0.0038467044392176027,7.206188070152739e-05,0.0037746425585160753
909.5877361405285,0.000282245878358037,1.6417023786653086e-05,0.0002658288545713839
955.1115546950507,0.03805420439590984,0.032161200445946427,0.005893003949963416
962.5126308700472,0.015386703373590311,0.0011943174984123809,0.01419238587517793
981.6014479763803,0.0013887367021147303,0.0002185317345513673,0.001170204967563363
984.586299604417,0.0006579396175693942,0.00010204667331585674,0.0005558929442535374
995.7648844291036,0.01875230657795783,0.004675543478490515,0.014076763099467315
1025.2664461891145,0.00013161372707261573,6.329991696319237e-06,0.0001252837353762965
1026.4338685442447,0.00014240213362731572,3.01593335737464e-07,0.00014210054029157825
1034.8765232932808,0.02363773010848481,0.00040542764697192,0.02323230246151289
1037.5879603274007,0.015367155792068503,0.0037064453233346447,0.011660710468733858
1055.9186341136465,0.005943273799477653,0.0026134767282138915,0.003329797071263762
1061.8820242572185,0.35108353463799896,0.3051097378519323,0.045973796786066654
1063.175262747276,0.02712867655020626,0.0031557732090994406,0.02397290334110682
1085.0848223751293,0.03476283977212363,0.01737501451510438,0.01738782525701925
1093.257546785398,0.013659092555074075,3.760397046626569e-05,0.01362148858460781
1138.7386582600213,0.0761152746448022,0.016907989906187165,0.05920728473861503
1144.4127842967298,0.007681187119328404,0.0016196177184398836,0.0060615694008885205
1151.9899275776943,0.10188237466341489,0.048152334014368046,0.053730040649046844
1176.8190226229472,0.04627635623305043,0.001934725822045888,0.04434163041100454
1178.181884092655,0.04567683411870457,0.03380005959246406,0.011876774526240513
1194.924171440141,0.022060232627184147,0.0004549229685363895,0.021605309658647757
1209.8514205481063,0.05363753059228761,0.050066002509706095,0.003571528082581518
1239.799215022162,0.06585663461336859,0.025685670514233042,0.04017096409913555
1251.92042794209,0.2265814174578531,0.1151937104190863,0.1113877070387668
1276.0560614120577,0.06421814942529692,0.039176518892754565,0.025041630532542363
1293.3755046761478,0.02534125196800819,7.670379333621849e-07,0.025340484930074826
1308.5611546040736,0.019305958084128074,0.0036050955987712917,0.015700862485356782
1316.1218841565224,0.04585383983622045,0.003953397113138745,0.0419004427230817
1324.2048115358878,0.18841843788789867,0.11171856000595409,0.07669987788194457
1326.063909552091,0.05589036010117382,0.03228947910323752,0.0236008809979363
1344.4414116762753,0.034244919125859294,0.006795917652571711,0.02744900147328758
1359.8493167136314,0.019473821965630293,0.00847590999067409,0.010997911974956203
1371.752846028995,0.548271295181572,0.3773526499600411,0.170918645221531
1396.5605646779889,0.07652525855568051,0.06212823005932229,0.014397028496358232
1398.0237594691116,0.03566767119402943,0.019747847065295993,0.015919824128733433
1472.1640970779245,0.021261761630941445,0.0002667857292496277,0.020994975901691817
1474.9212245441568,0.05306177097152396,0.00013516256476708458,0.05292660840675688
1485.5876043787935,0.007245454783455091,0.0011492864629070215,0.00609616832054807
1489.2808815098704,0.008852513171513136,0.0009768282101716265,0.007875684961341509
1494.0627566165572,0.013183235433407797,0.006701090685133147,0.006482144748274649
1496.9280959519797,0.0037571252847211924,0.0005036675681903139,0.0032534577165308784
1527.4229400059235,0.056296667745774825,0.0006918820366654868,0.05560478570910934
1533.9653006650465,0.26798141022778876,0.13437298983514065,0.13360842039264811
1659.365190776965,0.06931837642293824,5.5173163314806105e-05,0.06926320325962343
1663.7643089267694,0.009887955498434985,0.00024617538564234196,0.009641780112792642
1686.5663316330247,0.3386421048683223,0.10485923312450479,0.2337828717438175
1687.9648179587537,1.3900357323936845,0.4772993922687519,0.9127363401249325
2402.7119152336404,0.5129546097411304,0.2968665952349851,0.21608801450614526
2404.8557152453805,0.5536292121977762,0.370547000000021,0.1830822121977552
3070.196015148758,0.0504409277350278,0.0022211628493860685,0.04821976488564173
3074.878802326943,1.0036768192935825,0.9461751000869182,0.057501719206664276
3092.020978502637,0.3357389137619251,0.2928167433719909,0.04292217038993426
3094.227238056446,0.16908724017733512,0.14784269445593662,0.0212445457213985
3112.598713823148,0.16537149742196663,0.016351425931477693,0.14902007149048893
3117.17149082715,0.2805444029595469,0.004345257276214825,0.2761991456833321
3139.5758988605767,0.02634890492365158,0.00024171935952854728,0.026107185564123035
3143.969371777284,0.035809169167793635,0.0004571503580916845,0.03535201880970195
3192.832659443798,0.13620818836072326,0.05338052657734393,0.08282766178337934
3196.7847468503915,0.15288900703963504,0.02782741052807104,0.125061596511564
3201.8950239643395,0.3915780426965102,0.014082254709876759,0.3774957879866334
3203.615774551966,0.30299380171694223,0.07111686223529787,0.2318769394816444
3212.630477866295,0.27556643920839397,0.0033420497365479105,0.2722243894718461
3213.6905697164716,0.3997176284117191,0.009980945638349451,0.38973668277336965
3225.1724636597505,0.578997959445799,0.3973676745016299,0.1816302849441691
3225.781227243233,2.230837323693579,1.8174331740878522,0.41340414960572636
