frequency_cm1,total_intensity,isotropic_intensity,anisotropic_intensity
0.8215247495530937,0.0,0.0,0.0
2.599133402499849e-05,0.0,0.0,0.0
1.774512653362045e-05,0.0,0.0,0.0
2.519282087900597e-05,0.0,0.0,0.0
1.0678290272460544,0.0,0.0,0.0
1.4004448386337396,0.0,0.0,0.0
9.72835416400425,0.0031386670156975,3.718861401099602e-05,0.003101478401686504
27.44393505284558,0.0014853374092165807,1.0901174008102905e-06,0.0014842472918157705
33.4564285405157,0.0007864646043346442,9.564378335486566e-06,0.0007769002259991577
36.516313986214136,0.0010388466661930991,1.5909668861387798e-05,0.0010229369973317113
39.033112341830005,0.0014717094949663748,8.862104432791389e-07,0.0014708232845230956
58.67874410870845,0.0010058016825919666,1.1187323572804769e-05,0.0009946143590191618
62.43287235292207,0.0005305019761419852,1.4285957769370188e-05,0.0005162160183726151
77.42753859312103,0.0005341711807029771,2.1900093434218143e-05,0.000512271087268759
92.65792972246831,0.00033646706661595544,4.053107424353693e-06,0.00033241395919160173
101.36168434463396,0.0006569751408509587,0.00015225779433840678,0.000504717346512552
108.64506918373702,0.0002737335671518142,1.8075890198037035e-05,0.00025565767695377717
130.58553249732708,0.003509541087754405,0.001954867432332085,0.00155467365542232
143.02489314573026,0.0007066555999743309,1.910881636906116e-05,0.0006875467836052698
144.95197952670108,0.00045087774042491515,7.61957195703388e-05,0.00037468202085457635
155.53984759060967,0.00012079204568402147,3.441043775574964e-05,8.638160792827184e-05
156.7228326414744,0.001192978512555698,7.343852403496992e-05,0.001119539988520728
159.75603265041715,0.00022740118595632942,4.385087437558147e-05,0.00018355031158074795
180.7147105684318,0.003112373525778754,0.00013957457107134256,0.0029727989547074117
204.85228603447467,0.006976530829736111,0.005815531784171293,0.0011609990455648182
224.1436307638288,0.00320957759985199,0.001721335471995781,0.0014882421278562092
246.12520229062335,1.4307225510916709e-05,8.798882459922885e-07,1.342733726492442e-05
246.2033097719162,3.730683776965306e-05,3.213592017242776e-06,3.4093245752410284e-05
252.83438738962334,0.01473507849866736,0.006253295424923431,0.008481783073743929
286.727826645287,0.01618636932245236,0.009352011859004463,0.006834357463447895
310.55889744434944,0.0010827195373772764,0.00031426117432909357,0.0007684583630481828
333.3661414561567,0.0015089114813080268,8.818215735365356e-06,0.0015000932655726614
397.4947844486204,0.0057181303642882845,0.005564826039297845,0.00015330432499043948
431.59076908708585,0.001549210052288166,0.001212140368286072,0.00033706968400209407
448.6442665119821,0.0006377049940056022,0.00027716696057748395,0.00036053803342811833
462.35131676276285,0.0007989301686036038,1.881706284203384e-05,0.00078011310576157
488.7014420446572,0.0031859162134722785,0.001417243980475378,0.0017686722329969004
520.1404150578841,0.0004902107904868854,9.131140255488446e-07,0.0004892976764613366
569.2740316234662,0.01961187467404424,0.01613981835441466,0.003472056319629578
691.8092429856993,0.02712943148015509,0.022323466498529797,0.00480596498162529
728.3654747489607,0.0003121677012069848,2.7436527540805415e-05,0.0002847311736661794
729.9478070548942,0.00013080347370401273,3.5412926441600836e-05,9.53905472624119e-05
733.5587610058843,0.0020328353949855826,0.00042489897865701344,0.0016079364163285694
737.8658727408995,0.0006206806226612457,8.117830922804932e-05,0.0005395023134331964
757.2064935212668,0.005187667353316853,0.0029661551342456934,0.00222151221907116
772.0224669713879,0.0005982853015628375,6.27581580426293e-05,0.0005355271435202081
800.9125774340051,0.01060630202368566,0.006242437809234609,0.004363864214451052
840.7030727849154,0.0015046344341436305,0.00040059981677997825,0.0011040346173636522
861.3896180082019,0.006218281433741654,0.0044765634788932794,0.001741717954848374
908.5519378420964,0.017994945140301994,0.00039926746575681845,0.017595677674545177
908.7897092293847,0.045389341435827915,0.03653628972733788,0.008853051708490042
928.9883660338717,0.0015133506817843131,0.0007288495140705236,0.0007845011677137894
936.5722852265848,0.00168185580873014,7.265246695903167e-08,0.001681783156263181
992.1390657854472,0.003706991548891739,0.0013978950604918274,0.0023090964883999117
1013.0576115165323,0.008605359897334864,0.004078079992325616,0.0045272799050092485
1016.3260993014351,0.0014071986140991501,6.945519960327413e-06,0.0014002530941388228
1021.6938157016468,0.001096428971374494,0.0007976128786698305,0.00029881609270466353
1027.5574958318314,0.0037059248310442995,0.0015517810848851446,0.002154143746159155
1053.3584434842185,0.03215093261315748,0.01916412709581791,0.012986805517339573
1055.2412115865407,0.018202266979284787,0.0021678238611680615,0.016034443118116727
1063.6534869534157,0.006085370245438269,0.0003322107694450138,0.005753159475993255
1067.2581261395615,0.01933352835689157,0.0015909274047684661,0.017742600952123103
1083.3565623372122,0.018516299723641896,0.004161355188320769,0.014354944535321129
1084.5330184111613,0.009915397700485905,0.002712263464751759,0.007203134235734145
1089.9847170725204,0.011811205060939972,0.002490663948967004,0.009320541111972967
1091.1129745634207,0.08027016286471123,0.003755611444388317,0.0765145514203229
1092.3439007069546,0.031204863916592857,0.006402987818205212,0.024801876098387646
1107.5475297958512,0.005194045767966897,0.0006074559431730155,0.004586589824793882
1132.8664909041418,0.017409098547919864,0.003875647139009331,0.013533451408910532
1145.9769080142398,0.14733044737508483,0.11255230683629823,0.03477814053878661
1154.5596320499842,0.03937547092661823,0.00048725955899096157,0.03888821136762727
1210.1480156887906,0.012776756020097074,0.0001514427259452712,0.012625313294151803
1211.396333077479,0.008621083586293153,0.0030507644514775854,0.005570319134815567
1226.3268304571736,0.02454198941357977,0.02143367945353407,0.0031083099600457023
1233.3058300068296,0.0013993842134754147,0.00016763028289243286,0.001231753930582982
1245.439350532517,0.006110976100518026,0.0009926680298603028,0.005118308070657723
1255.9752985432208,0.002086412255234844,0.00040491244153952375,0.00168149981369532
1266.9248549206252,0.0099530231501319,0.0039660095291162425,0.0059870136210156575
1272.7745919743643,0.0025166470687510946,6.884555652090988e-05,0.002447801512230185
1293.4354689705074,0.0032431475463597426,0.0007900245472938862,0.0024531229990658564
1301.8783520227996,0.00216333497830473,0.00024587255907858053,0.0019174624192261494
1308.2014343071783,0.003071758038054586,0.00034548778910943123,0.0027262702489451547
1311.3779605994575,0.002769450936160027,6.133968369074812e-05,0.0027081112524692786
1328.0484350483187,0.062101274793271835,0.0001040190822988617,0.061997255710972976
1328.9448540675662,0.04115138085316444,0.00010043753633792233,0.04105094331682652
1332.6562020839942,0.04193313820071474,0.0005226648143409489,0.04141047338637379
1333.728165167573,0.02137764119047233,3.7676933444307665e-05,0.021339964257028023
1338.8768214308725,0.0005752212298266649,8.720260071891766e-07,0.0005743492038194757
1339.5243298770934,0.00490131090876548,0.0007635058608811053,0.004137805047884375
1342.6297021285425,0.004927746662817099,0.0001636569816605921,0.004764089681156507
1350.7330475079193,0.00900754532318733,1.935926004659433e-05,0.008988186063140736
1355.6084353596664,0.025680926171133815,0.0059637983706530345,0.01971712780048078
1378.2446440176655,0.003020436157659584,3.46644861036422e-05,0.002985771671555942
1389.4702019532112,0.005315331474405002,0.00036899436642393355,0.004946337107981068
1394.8883441226835,0.014677139230146609,0.0020812834924336674,0.012595855737712942
1406.60329000524,0.001484934204097492,4.98451270543618e-05,0.0014350890770431302
1412.1685493734958,0.0006015589675930273,0.00041634962395324996,0.00018520934363977731
1413.3681671945183,0.0020558115547269972,0.0014501660984248778,0.0006056454563021193
1415.845825927284,0.0034969398360845086,6.332627082943188e-05,0.0034336135652550765
1419.7467464605866,0.004362784703679825,8.342082838479956e-06,0.004354442620841345
1422.299323388565,0.0076600219603038125,0.0002727191924447082,0.0073873027678591045
1468.242737452161,0.03354406177972883,0.002977924108056626,0.030566137671672204
1480.2174007828235,0.007429839989112019,0.0007270876342334036,0.006702752354878615
1481.4047969821504,0.007823494060288032,0.00044455477464325053,0.0073789392856447806
1482.2046166701416,0.03116027307259135,0.00044365155658968833,0.03071662151600166
1482.3806363938995,0.055903087508144406,0.0031042562235721735,0.05279883128457223
1484.869000298515,0.039966533977565194,0.005707820154700633,0.034258713822864564
1486.5873118747547,0.10700664267323501,0.0022649899507912203,0.10474165272244379
1488.5067389038873,0.016821048508647244,0.0004839570360729967,0.01633709147257425
1491.8586603975814,0.0072859897493799675,0.0002650333449671935,0.007020956404412774
1493.8961748009133,0.027785346887954643,1.996335801785757e-06,0.027783350552152856
1494.0794649184477,0.027601967807993757,4.5849383682143105e-06,0.027597382869625542
1495.0903264784815,0.00900657762062032,0.0002880871210291817,0.00871849049959114
1499.5073905205184,0.003053328477813247,6.831527427935973e-05,0.002985013203533887
1502.713773203981,0.0023363446973068626,0.00011371738431070961,0.002222627312996153
1505.4452182064622,0.0022848998694631048,4.6268683743964506e-08,0.0022848536007793606
1506.5887585530588,0.0011206159913593038,3.2841766671805294e-06,0.0011173318146921233
1806.1861807886285,0.054734640278600984,0.015344555653079869,0.03939008462552111
3021.9898612319544,0.009352268541523365,0.004590104057684046,0.004762164483839319
3023.589518205931,0.5412790565387682,0.5137705946007677,0.02750846193800048
3024.0622271247043,1.5949957177132505,1.5564007773064858,0.038594940406764734
3027.827127864667,0.022497241813703932,0.012627793893513331,0.009869447920190602
3030.7287525994852,0.26164705535848937,0.1555595843017856,0.10608747105670378
3032.704023775484,0.17365670005211614,0.14919363263513655,0.02446306741697961
3036.2975322495577,1.8846259873307833,1.8454875058847326,0.03913848144605066
3040.9990553980574,0.09558470510652968,0.045277107780914365,0.050307597325615315
3041.41028569837,0.4160108138798445,0.3792487907278945,0.03676202315195
3044.969357056626,0.5927266801812178,0.44862672119493063,0.14409995898628714
3045.7898232787024,0.8772062210498255,0.03243501371544252,0.8447712073343829
3047.9450239381463,0.6133835426763723,0.10719816649544019,0.5061853761809321
3050.103660322707,0.8909261735463369,0.8835566959859159,0.007369477560420966
3050.4866984743553,0.8822576041178818,0.8737077572852975,0.00854984683258434
3050.606421721304,0.012545849602227432,0.007241291118898697,0.005304558483328736
3056.4232664634715,0.07651307638160039,0.06426388772726807,0.012249188654332313
3059.2377556467377,0.0027762525797223325,0.0007737830725122019,0.0020024695072101304
3069.652954247267,0.39559393761157036,0.0006697623162957863,0.39492417529527457
3071.5471631808696,0.19529421443719813,0.012311730146324057,0.18298248429087408
3074.0538381864335,0.17281009805357206,0.005988385485805769,0.1668217125677663
3081.011892380192,0.12982349781199679,0.09069843470411369,0.03912506310788309
3083.0242802337852,0.291141690828427,0.261379727893852,0.029761962934575004
3084.801054135175,0.06741323124667961,0.006404047099618718,0.0610091841470609
3092.558080668352,0.14202453924584907,0.09819570671031497,0.04382883253553411
3093.6863912749695,0.2830563499351378,0.23966497633050335,0.043391373604634416
3113.0381890930207,0.1552306330206084,0.0006223160843639834,0.15460831693624444
3113.6311967553916,0.1324403970719983,3.0964616698179404e-05,0.13240943245530012
3113.8303142542286,0.010879150211339474,0.0030179042498169545,0.00786124596152252
3121.5470153986366,0.4158627417003116,0.06421729884848199,0.35164544285182964
3121.835582211869,0.41098905982694417,0.06202826454377199,0.3489607952831722
3141.883328945219,0.16796949444618822,0.016769472761414644,0.1512000216847736
3858.7106146900405,0.20485873975382146,0.1703189446588604,0.034539795094961065
