frequency_cm1,total_intensity,isotropic_intensity,anisotropic_intensity
1.144125892538278,0.0,0.0,0.0
0.3025385013888854,0.0,0.0,0.0
2.3842457313140298e-05,0.0,0.0,0.0
8.595166231859522e-06,0.0,0.0,0.0
2.879298120025467e-05,0.0,0.0,0.0
1.1587481182107922,0.0,0.0,0.0
15.553448737007741,0.007457211530017754,0.0003901860155011613,0.007067025514516593
21.057517381389946,0.029463475806783594,3.215558448320719e-05,0.029431320222300387
31.842137628054054,0.01920133143481952,0.0014602811451884545,0.017741050289631063
41.752078175360424,0.02151724156343904,0.00037289064933333424,0.021144350914105707
47.43300019835389,0.017073171014942268,0.000112647924341707,0.01696052309060056
60.81432199213745,0.02319172742466921,0.00033880318019829773,0.02285292424447091
76.52249127897348,0.0037757759449463728,5.288286830075287e-05,0.00372289307664562
87.73244582555861,0.002190576967536254,2.6657765314152846e-05,0.002163919202222101
130.13522160350504,0.0026594051315670915,0.0011140217768893805,0.0015453833546777108
143.471337973299,0.0059939206359680055,0.0002030597535184485,0.005790860882449557
170.91364014376796,0.0100057471236301,1.3505786950134659e-05,0.009992241336679966
192.11175763700436,0.030167779684632245,0.000657345381113018,0.029510434303519226
206.78924199503172,0.009646498725946457,0.001903517934584613,0.007742980791361845
239.3590821047786,0.0029943185906926044,0.0017864934140464452,0.001207825176646159
264.6462669197588,0.009937663701218551,0.002835475689985163,0.007102188011233388
346.46985489912623,0.007792926611448757,0.0021576396121636356,0.005635286999285121
361.57734206806515,0.008411149232970767,0.006888366218003611,0.001522783014967156
388.0073779913412,0.014419472813511318,0.011757477985669274,0.002661994827842044
414.9116426238513,0.000466176612113799,6.979709934014635e-05,0.0003963795127736526
417.52222496541685,0.002461150232228136,0.0018982747717804045,0.0005628754604477316
418.11833891705345,0.0005438387057201684,2.7852116875809148e-05,0.0005159865888443593
437.12492678752125,0.0016984970109099275,0.0012356007727486159,0.0004628962381613116
447.31798884496584,0.0037996465549670093,0.0012612956561733057,0.0025383508987937035
480.19795820905443,0.0073948967886548,0.002219090991425101,0.005175805797229699
490.3740568848596,0.008072882074225334,0.005329543981680916,0.0027433380925444176
531.3628802391735,0.012023944957348345,0.0074489034444930975,0.004575041512855248
561.4513952595707,0.004738644056166374,0.00020849010379886442,0.00453015395236751
609.1132989616149,0.0034241298392534442,0.0013673384661942011,0.002056791373059243
630.7622959361671,0.024206153442644436,0.0005389568735034343,0.023667196569141003
631.69744990894,0.02123647131805277,1.0799193218126165e-05,0.021225672124834644
633.2000322351084,0.016816416667784863,1.0949651299397131e-05,0.016805467016485467
671.750943686401,0.003356769161846044,0.0007112152785818709,0.002645553883264173
691.0404944545587,0.013531562553205638,0.01010396405226315,0.003427598500942487
708.657322776277,0.02163354199923248,0.01868351753763446,0.002950024461598019
714.9799473601003,0.01516454541541687,0.012943553229900274,0.002220992185516597
719.5817213676527,0.0009549259239586482,0.0006892684932968997,0.0002656574306617486
725.068295860751,0.00038475830823498774,6.465825441175565e-06,0.00037829248279381216
750.8355741220854,0.016484019473392425,0.012261165257084967,0.004222854216307456
775.6738853022015,0.05745408185913315,0.055941346252451195,0.001512735606681957
787.6307573660205,0.003327912957466762,6.164443891170896e-05,0.0032662685185550528
806.3949527834448,0.0035741556071359026,0.00015716773546430122,0.0034169878716716015
828.5119440060801,0.009555480680779396,0.0007616189872124341,0.008793861693566963
876.4399924762503,0.016891028276924236,0.015132867552940188,0.0017581607239840484
876.9856246729926,0.0051259897312494656,0.0010408419226190244,0.004085147808630441
878.5852926475274,0.017427295154322557,0.008738140853646747,0.00868915430067581
880.8859538978546,0.0038050308847931806,0.0008638089889019575,0.002941221895891223
949.7682693583688,0.0020387028508434568,0.0003233000810953575,0.0017154027697480994
963.9682258725975,0.003492395663967156,0.0006306701017043321,0.002861725562262824
972.467857303094,0.0018344667423061782,0.0013597042279776812,0.000474762514328497
987.7650195201854,0.002567083406417813,4.032119199448741e-09,0.0025670793742986137
1012.8167863814352,0.0011038369215812058,0.0005065866729133367,0.0005972502486678691
1017.9666419831714,0.01684521084587506,0.004603146575609253,0.012242064270265807
1019.780410533875,0.003973394783877392,0.002079894078256379,0.001893500705621013
1020.2607704210658,0.0048414971129251685,1.1489499354241331e-05,0.0048300076135709274
1027.50472451698,0.04573829980300327,0.033590026159514765,0.01214827364348851
1028.2064748656633,0.22470064613346344,0.20977272400680091,0.014927922126662514
1029.5814712695317,0.1914075488969949,0.17715195789797022,0.014255590999024674
1031.7310895748446,0.004780822135566423,0.00359391711704601,0.0011869050185204129
1038.8839009232759,0.0010042836903431931,0.000647646546158489,0.00035663714418470425
1039.1025764210463,0.0005896372167215035,0.00022953240585626064,0.00036010481086524293
1051.4188366274727,0.05756589221590404,0.05086843065947408,0.006697461556429956
1063.9267733945571,0.04286406463120937,0.0013758430036366182,0.04148822162757275
1067.0107196735692,0.24864021280894025,0.24064783846256926,0.007992374346370977
1070.3942229804345,0.01956947835680929,0.01215216657541182,0.00741731178139747
1107.4105516044194,0.03770108768909946,0.0005485995075269472,0.03715248818157251
1115.382257736135,0.006404776842486512,0.003104555071184696,0.0033002217713018157
1116.543634397055,0.001959511373858798,0.0005691311111096266,0.001390380262749171
1119.56695572904,0.01940729545345437,0.01084929611886085,0.00855799933459352
1173.2374348082312,0.061677919462342,0.05139978795190894,0.010278131510433062
1177.4843205913598,0.018901297012175983,0.001750165811758087,0.017151131200417898
1178.4095968979007,0.03012904226238937,6.287991220511928e-05,0.03006616235018425
1181.2482034161308,0.13418518504449933,0.10716609756813063,0.02701908747636872
1205.7062880139706,0.01948296481516132,0.012119822164819554,0.0073631426503417636
1206.5139336695813,0.07819672951453746,0.06699914677559166,0.011197582738945798
1212.3323063688308,0.027888735641498227,0.011280207414180616,0.016608528227317614
1216.8247438006013,0.10451670852348274,0.08634782148425735,0.0181688870392254
1239.531948572616,0.03117936102606242,0.0008709620691315016,0.030308398956930917
1287.5967041700208,0.023018613081264096,0.0005211626197153589,0.02249745046154874
1294.5377641458394,0.10498321898100635,0.07586598356885234,0.029117235412154007
1315.4618834412872,0.05510882931904707,0.02410888305071939,0.03099994626832768
1323.9754997554128,0.004270361482195067,0.0013083281703757724,0.002962033311819295
1325.2137672604983,0.013581333714247235,0.004638995866110887,0.008942337848136347
1340.7642633019632,0.0631759790073341,0.052948067693065204,0.010227911314268888
1354.9101471713261,0.02714159587186115,0.016939287771557954,0.010202308100303198
1355.5785769385125,0.009742973419659033,0.001652836976347228,0.008090136443311805
1375.734901755568,0.01290459171507774,0.008641866089101273,0.004262725625976468
1380.026314607658,0.03166286602146978,0.0026058429673926084,0.02905702305407717
1475.5327912256967,0.029391443907543592,5.415890371221856e-06,0.02938602801717237
1492.8374917404294,0.011606564801973335,0.003794228404342604,0.007812336397630732
1494.8862971916303,0.01981321831189454,0.011338682924311437,0.0084745353875831
1502.4316974469502,0.009950884973098265,3.228484628641108e-05,0.009918600126811854
1541.202036174478,0.007478336741010868,9.97715389453227e-05,0.007378565202065545
1542.0963388204614,0.018764339689542355,0.006543773955652637,0.012220565733889717
1546.1394902152313,0.002442578872727934,1.6714692100846664e-05,0.0024258641806270873
1659.24656561566,0.03451058610712669,0.004260225263502126,0.030250360843624566
1660.3618618211658,0.04279969668122362,0.005295719398857524,0.0375039772823661
1665.3461591789057,0.0360018967945503,0.0002750348764095595,0.03572686191814074
1677.4487284366385,0.31390773926798105,0.05970769487058051,0.2542000443974005
1678.7370510358846,0.44853390811258953,0.11116928521373827,0.3373646228988513
1684.468801468397,0.07725310663586978,0.011242014801604916,0.06601109183426486
1784.2288872926013,0.22383296141739545,0.14362440698697593,0.08020855443041952
1796.6282902673286,0.19036736875117735,0.1313087399725445,0.05905862877863285
3084.96185083162,0.24061974663723307,0.18749474885165876,0.053124997785574314
3091.14631102646,0.4101949819287913,0.30541754559772294,0.10477743633106835
3160.164038236729,0.1948691523377878,0.04963604982360523,0.14523310251418256
3185.285472997662,0.21143919178842735,0.06786963191101632,0.14356955987741105
3193.854558674922,0.168169081383011,0.0026363399246519875,0.16553274145835903
3196.071856349886,0.20722438287140385,3.755881143205184e-05,0.2071868240599718
3196.793408208961,0.23257212072112188,0.00039208063461686167,0.23218004008650503
3203.1609889949664,0.40221842404229147,0.0937459458331136,0.3084724782091779
3206.478456569482,0.494469035303868,0.0005097446652359088,0.4939592906386321
3208.7342607646274,0.5603107080925968,0.008834575557821226,0.5514761325347756
3212.9536522116473,0.21535804228861963,0.0017929406280862846,0.21356510166053333
3214.6061860104032,0.27533950117760597,0.09339847671362045,0.18194102446398552
3217.951676064454,0.52780462791881,0.3323870506055746,0.1954175773132354
3223.24846512692,0.4604788084059336,0.3728838676553699,0.08759494075056369
3223.8973644767143,1.2116760657423922,0.9267443609546212,0.2849317047877709
3229.1786945033987,1.060964450647199,0.881070682177511,0.1798937684696878
3229.6340671396706,0.4780434361728205,0.3802707810669077,0.09777265510591282
3234.2962389415884,0.8578178686195714,0.6766750372843526,0.1811428313352188
