frequency_cm1,total_intensity,isotropic_intensity,anisotropic_intensity
1.2016830695261005,0.0,0.0,0.0
2.085576283728166e-05,0.0,0.0,0.0
1.7627473656087855e-05,0.0,0.0,0.0
1.5012787129263271e-05,0.0,0.0,0.0
0.7937155525110818,0.0,0.0,0.0
1.0091048277639043,0.0,0.0,0.0
6.586573585279949,0.003123163858104229,1.7775725032417914e-05,0.003105388133071811
20.385251028977766,0.001361050954005027,1.0856403686326342e-06,0.0013599653136363945
24.1311565429796,0.000873509259125594,3.9753256644155693e-07,0.0008731117265591525
26.01066630955365,0.001261009508728776,1.8823221066828535e-05,0.0012421862876619474
28.230195504885344,0.0012649770316759282,3.8267012115290775e-06,0.001261150330464399
39.35664261438386,0.0005398706370177233,4.934385001654546e-07,0.0005393771985175578
42.8360128502741,0.0008204444191553063,2.4542435023118344e-05,0.000795901984132188
56.41518785497545,0.0006155380047527167,1.8043535022221513e-05,0.0005974944697304951
67.5825857763357,0.00022212956239366983,1.3716748106174648e-07,0.00022199239491260808
78.64835850740154,0.00044061615021644666,4.194649326668181e-05,0.00039866965694976487
83.60228744108991,0.0005438797815562124,2.2308614898643427e-07,0.0005436566954072259
99.73220187190576,0.0019090252242539444,0.0008306572475106902,0.0010783679767432542
103.11921011447373,0.0007349023977083559,5.38406021659236e-05,0.0006810617955424323
107.24486773443333,0.000890950249763201,2.4967459779995285e-06,0.0008884535037852015
120.92375205733276,0.00022754769418442748,2.752959189980733e-05,0.00020001810228462014
128.64260577339311,0.0004248025816861922,0.0002552002065043956,0.00016960237518179663
134.0474820238627,0.001016200465234078,0.0004318989238771585,0.0005843015413569195
150.40003785497342,0.004198300406202987,0.0038483052778146023,0.0003499951283883849
157.29054313892377,0.0002702851338083046,7.469515710765791e-08,0.00027021043865119697
161.7115447174148,0.0021549543311260634,0.00011179225678971711,0.0020431620743363464
164.76105966411922,0.0006352047646063416,0.00048808072868013647,0.0001471240359262051
168.17171995335764,0.0013139922994867236,0.0009528870577808024,0.00036110524170592114
172.2047795446804,0.0015058738019901312,0.0002014780851787946,0.0013043957168113367
184.50907206438117,0.004900893050070921,0.0012217774373134422,0.0036791156127574795
205.47733150346522,0.008019041774892429,0.0045873081423024285,0.0034317336325900014
220.23404958147722,0.011658908941913106,0.007476318814484462,0.004182590127428644
245.81627205717822,2.36127887183849e-05,1.1830911143687815e-07,2.3494479606948024e-05
245.92848163070423,2.254587791077882e-05,2.7895744892192824e-09,2.25430883362896e-05
256.6091250249034,0.005625009097102691,0.001445440322692709,0.004179568774409982
280.4052608739411,0.007692732090476478,0.003476820304145594,0.004215911786330883
323.4347885080019,0.0012651010446716824,0.001126308723973321,0.0001387923206983613
343.3474951108327,0.0007817597882813522,0.00038383603374528004,0.00039792375453607225
367.0404207808715,0.0025665533437445325,0.0021084529659043004,0.00045810037784023227
381.06623819410567,0.0008290448012825898,2.4194850476775402e-05,0.0008048499508058143
422.1391394422227,0.0010000110796482603,0.00039842241754687945,0.0006015886621013808
463.31237912352094,0.0005499656565403381,0.00016138760036592863,0.0003885780561744094
476.4263285900245,0.001580421686791927,0.00022270441861849225,0.0013577172681734347
489.0252158654677,0.0014024865567919126,0.00029863976203461814,0.0011038467947572944
497.5691281052608,0.004009907445668241,0.0034105601941200967,0.0005993472515481443
522.0720739923953,0.00029556668269224533,3.906309866041524e-05,0.0002565035840318301
569.7844908410294,0.021469332928567376,0.018062829179533526,0.003406503749033851
691.5776799167775,0.028290130198129468,0.023418758831628046,0.004871371366501424
728.0535008540314,0.00023087607201657977,4.935471054040124e-05,0.00018152136147617852
728.808908721967,9.023305714230844e-05,6.6996204743997036e-06,8.353343666790873e-05
729.7555190238801,0.0010603879429955123,4.838199082648573e-05,0.0010120059521690266
732.0671123320387,0.000435801909291754,0.00012580500401592544,0.0003099969052758286
739.2996459390531,0.0017739623585947776,0.0007374638648423765,0.0010364984937524012
744.287775348202,0.0004420759749495121,2.0846370206385065e-05,0.00042122960474312706
763.2867572970846,0.005860611510386813,0.002589524129512831,0.003271087380873982
776.9311679756198,0.0007851108416886378,5.676665493823271e-05,0.0007283441867504051
800.3731977464215,0.006804228990281503,0.004333421286942075,0.002470807703339428
831.10096907018,0.0007664204390108831,0.0003325917583192063,0.00043382868069167683
849.696332661324,0.005494992370514868,0.0031631682083121965,0.0023318241622026707
900.1438543429224,0.001751942436515374,0.000730946070575334,0.0010209963659400401
908.2835597129189,0.025959248778416606,0.014078557137855632,0.011880691640560976
908.3406294459681,0.035365397989145064,0.023791000463963426,0.011574397525181636
909.1049827115847,0.004200146562143165,0.0012670864459372185,0.002933060116205946
968.8807462087075,0.0011478605868011451,0.00045461315235682337,0.0006932474344443218
973.241442113741,0.0013050332969352736,0.00016428038997367013,0.0011407529069616036
994.0117115001004,0.0018490208839008965,0.0008075903185281955,0.001041430565372701
1017.0708052134387,0.008369364611380454,0.004122742546853379,0.004246622064527075
1019.5763167982042,0.0016054132228636342,0.0002839649922361293,0.001321448230627505
1026.1242955828734,0.005402389683764105,1.049581146318828e-06,0.005401340102617786
1028.403418507231,0.003710847898714843,0.0012033702251610925,0.0025074776735537507
1036.5187648133658,0.001144540160619862,0.0002719958581903587,0.0008725443024295032
1038.6149452092293,0.002004248999098124,7.700685174509622e-05,0.0019272421473530278
1053.7012301792213,0.004002299302508395,0.0024423514710784,0.0015599478314299948
1062.9189880958788,0.0010294528141854336,0.0004883082876664972,0.0005411445265189364
1073.7333700719735,0.03378250461612495,0.011484082463295839,0.022298422152829112
1077.8887775810572,0.024368656225745616,0.00376048154442199,0.020608174681323626
1082.7776516447213,0.009408593073816874,0.0011036191842683876,0.008304973889548487
1086.0933212368877,0.03856576058210942,0.00032041969554712484,0.0382453408865623
1089.843659517129,0.0221501080804707,0.0013730717204743423,0.020777036359996358
1090.197878684546,0.053919080776664595,1.5455962962070892e-05,0.053903624813702526
1091.2129998116104,0.03945054869585606,0.00016500525152410002,0.03928554344433196
1093.7705258637498,0.019422374198567304,0.00729248290875087,0.012129891289816433
1095.7158494976088,0.04585140043690617,0.02472851233308197,0.021122888103824202
1109.5433680476178,0.008982972335580288,0.0025364678950350068,0.006446504440545282
1136.9292022771258,0.014208377149660842,0.001677211431282562,0.01253116571837828
1150.7569836144974,0.20643539685499235,0.1587579908964729,0.04767740595851942
1155.8961978642694,0.06402393580251092,0.0006773656763330068,0.06334657012617792
1207.473169797545,0.01662147782301825,0.00014936849598840655,0.016472109327029843
1208.1547060401535,0.008678983905570928,0.002191643411386532,0.006487340494184397
1220.3541314666988,0.02350561689614935,0.020699030919729692,0.0028065859764196573
1226.484385992263,0.0016001906936841748,0.0004559722971685321,0.0011442183965156426
1233.2219075823818,0.006230426827882015,0.0009820579458648183,0.005248368882017197
1240.8350766644528,0.001402483087181817,0.00019484171836218125,0.0012076413688196358
1252.6332069536277,0.009061336519903908,0.004660971860608196,0.004400364659295711
1256.6100298832068,0.0014509368495034488,0.0001754374813669226,0.0012754993681365263
1271.2233659164115,0.002963530105748253,0.0006759051761146347,0.002287624929633618
1278.5696773169536,0.0018652546219859914,0.0001871238526305197,0.0016781307693554716
1286.0887059500942,0.004939131311572838,0.0009854791224120445,0.003953652189160793
1289.7251629573152,0.0009828606262204595,9.632287853351303e-05,0.0008865377476869464
1306.8155360570436,0.002208714504039875,0.0001261176622401346,0.0020825968417997405
1310.896351089478,0.008020534515015163,0.00022325868009120484,0.007797275834923959
1315.8365793731903,0.00887838918691112,0.00023265505166392687,0.008645734135247194
1320.9496643433497,0.010011071641712815,0.0007050164594275333,0.009306055182285281
1328.1129382924235,0.0806534251163174,0.0003151226011309399,0.08033830251518646
1328.4582769074002,0.10180669870071517,2.378414665883251e-05,0.10178291455405633
1329.6042477312187,0.003486482645610155,0.00038663524469074437,0.0030998474009194107
1330.7286895464106,0.013961352065072246,2.6387078449551507e-06,0.01395871335722729
1336.8064398526126,0.0016071731820919521,0.0003808472119654619,0.00122632597012649
1337.0874956043515,0.0011358260125389954,0.00012428956569039465,0.0010115364468486008
1339.3316166677832,0.007808670510227207,0.0005014849432829681,0.007307185566944239
1340.1359890683282,0.007565669399463041,0.00010009265299823006,0.007465576746464812
1347.142855489651,0.008395028990109406,0.0009311143844893817,0.007463914605620024
1353.3846783914494,0.016922176754720193,0.0020997381115669023,0.014822438643153291
1356.887614431631,0.017700459140406404,0.002976562305737734,0.014723896834668668
1377.0449574872493,0.001892054684790348,0.0007094236772536992,0.0011826310075366488
1386.2791769921732,0.003160364381072014,0.0005722577155212608,0.002588106665550753
1393.722116719292,0.014555746013433964,0.001927804523359464,0.0126279414900745
1401.9087445174544,0.004385318905523152,7.89787303665337e-06,0.004377421032486499
1409.404212747233,0.002125036719147338,8.351195595071293e-06,0.0021166855235522667
1412.3610587278886,0.0013263716069970197,0.0009016193037977926,0.00042475230319922715
1413.0733889839478,0.0015710165386403972,0.00045502056266177664,0.0011159959759786207
1416.7697256162692,0.0015289795426970982,0.00033828502980740434,0.0011906945128896938
1420.15225637556,0.0058586609459979015,7.071236438213689e-07,0.00585795382235408
1420.9943741890656,0.004660250923477767,4.231720694863491e-06,0.004656019202782903
1422.227339008719,0.006528805918298303,0.0002581464514296101,0.0062706594668686935
1467.7598545803025,0.03434060455530219,0.003121130296319847,0.031219474258982347
1479.9004990719334,0.003936493947757817,0.0004663570623643289,0.003470136885393488
1480.6962906074623,0.000976269369226087,0.00038097777502673345,0.0005952915941993535
1481.0173097185007,0.0025675329560918407,0.0005854282226003983,0.0019821047334914422
1481.3223877720945,0.0013821573880079905,0.0001200968877420845,0.001262060500265906
1483.2811581628594,0.08503821277717892,0.004389707905668076,0.08064850487151085
1484.0024490940966,0.10218930667653188,0.011733157764745804,0.09045614891178608
1484.8698654798463,0.09062502263421429,0.0008062585935677386,0.08981876404064655
1485.7422791539923,0.003645053777561969,0.0007214491871846336,0.0029236045903773353
1488.1814163628446,0.06099453467212469,0.004926782865789851,0.056067751806334845
1490.1351297775057,0.02788255034596573,1.741968480487519e-05,0.027865130661160857
1492.6360767368196,0.002896314269981408,6.797482529145555e-05,0.0028283394446899524
1493.7668757721633,0.027045089593118774,5.746421255448968e-07,0.02704451495099323
1493.7978747106479,0.027081982640052807,1.9980298708861985e-08,0.0270819626597541
1496.2078418648487,0.004162599322332231,5.6266548751714255e-05,0.004106332773580516
1498.8372500564112,0.0031150612182670274,1.4527467782057508e-05,0.00310053375048497
1501.8416148050594,0.00241203090041102,0.0001628683756792706,0.0022491625247317492
1504.1281124655022,0.0020817541992825483,0.00013410486821767344,0.0019476493310648748
1505.8559000817274,0.001715935128452679,4.881875478192015e-07,0.00171544694090486
1506.5700819487263,0.000985309491129512,3.435447411062257e-07,0.0009849659463884058
1806.2096205880953,0.05694775168294632,0.017180891794849933,0.03976685988809639
3021.852370678662,0.007844245178844413,0.0073760362340279054,0.00046820894481650814
3022.361171872531,0.008165507499843246,0.00044489576399915127,0.007720611735844094
3022.5868413833236,0.09836271394290391,0.0848642152858195,0.013498498657084416
3024.5961721449194,1.3011878827260248,1.2620958078268256,0.039092074899199254
3024.916996072884,2.4520397647135996,2.412435917340091,0.039603847373508916
3025.4704001470923,0.17740842107605678,0.16882979159998407,0.008578629476072722
3028.4761693683913,0.21237367722963088,0.19545738610197652,0.01691629112765435
3031.2532377381235,0.2749480111885505,0.17643275203198835,0.09851525915656212
3033.004974741357,0.1476535071342374,0.1268039002815664,0.020849606852670982
3036.018921249779,0.12981623870663192,0.11732708678559717,0.012489151921034756
3037.4184854362907,1.7662032445824312,1.727082154837443,0.039121089744988014
3041.2510039614563,0.4281898349011197,0.39543232175808535,0.03275751314303436
3041.390000771972,0.14463547528288276,0.09767866460787274,0.04695681067501002
3044.1778227634877,0.9636348193993258,0.0009340402088948535,0.962700779190431
3044.937995302621,0.9241713099787227,0.21218197190478824,0.7119893380739344
3045.88629090295,0.5184744310921553,0.22902750533746888,0.2894469257546864
3047.459789821238,0.030119518211043216,0.004043970596837922,0.026075547614205295
3049.845406545907,0.09120503664477973,0.07742230563325322,0.013782731011526505
3050.0203062203414,0.8992186603375055,0.8913985208731748,0.007820139464330645
3050.0258358919828,0.8528611821549235,0.8450056260246406,0.007855556130282918
3052.04452092314,0.1059748995776066,0.02582333694320546,0.08015156263440114
3056.9001088591494,0.11327686955255939,0.04965017750342681,0.06362669204913257
3059.3840316295077,0.23761876429419548,0.00013115314659820388,0.23748761114759728
3067.8200921916855,0.035929408196972934,0.007652449771491248,0.028276958425481686
3067.978383578508,0.048958070680691634,0.0013643586522152152,0.04759371202847642
3073.6712563974843,0.35916726587564246,0.004518323840420231,0.35464894203522224
3076.4219582246283,0.17355867303855982,0.008875839661334805,0.164682833377225
3078.91965144944,0.04772529723302539,0.004212260177375491,0.0435130370556499
3081.70016609016,0.3832657088371077,0.33801181787076195,0.04525389096634575
3085.758383823808,0.025434454621931692,0.01664138276997854,0.008793071851953153
3087.471166127855,0.030708278002200853,0.004831291849897521,0.02587698615230333
3092.892588230789,0.21514298122372394,0.16880939627423008,0.04633358494949384
3093.8501197962,0.20059864770532704,0.17080164586089236,0.029797001844434692
3112.9205150228145,0.13685740982429256,1.6725331235136833e-05,0.13684068449305742
3113.020756954668,0.12864223689509088,2.319176634236141e-05,0.12861904512874853
3113.6097666264104,0.03066506657641519,0.004118282143942672,0.02654678443247252
3121.1029100823935,0.4107889611147275,0.06302811610861184,0.3477608450061157
3121.2511849600824,0.4115675463869055,0.06353815862809017,0.34802938775881537
3141.364583785449,0.1683102400326741,0.017677541535431385,0.15063269849724273
3859.631646773439,0.21199086233201325,0.17747894232972242,0.034511920002290836
