frequency_cm1,total_intensity,isotropic_intensity,anisotropic_intensity
1.0343264113671384,0.0,0.0,0.0
2.2603585834535746e-05,0.0,0.0,0.0
1.5208892378738059e-05,0.0,0.0,0.0
1.642493497247456e-05,0.0,0.0,0.0
0.9753492926127324,0.0,0.0,0.0
1.0175120341641821,0.0,0.0,0.0
8.141415562352416,0.006561028329288815,1.1538887405225758e-05,0.006549489441883589
17.601041780209837,0.027310405589254544,8.760921527824409e-07,0.02730952949710176
26.434167911329197,0.008159695901304366,2.965613319658836e-07,0.0081593993399724
45.14215630851185,0.013459619763797415,0.00013756833720537774,0.013322051426592037
47.155196453706864,0.004674062803611954,8.127193210360727e-05,0.0045927908715083475
58.39467953879875,0.0038109103200537602,0.0001751508318478784,0.0036357594882058817
72.0043442023882,0.0078050072966050245,7.802409403452431e-06,0.007797204887201572
76.66807140578938,0.018227206199584352,8.147262373076708e-05,0.018145733575853584
138.85195869376614,0.0014935215924113574,0.0006211538028107831,0.0008723677896005744
154.64245489137437,0.0016754370993486032,0.000694225994581697,0.0009812111047669062
182.24409524625435,0.0008002556124956778,0.00017808469811966156,0.0006221709143760162
191.57920715162288,0.0016764223063196505,0.0010392638805607442,0.0006371584257589064
202.0462231063115,0.0015976131851919693,0.0006465386245501934,0.000951074560641776
239.3876549409064,0.0009940652146341552,1.4908776736972909e-06,0.000992574336960458
241.9598561292179,0.0008966232707089814,0.0001246502655274357,0.0007719730051815457
252.344493391785,0.012507623683216264,0.01002402200729149,0.002483601675924772
268.4600835214095,0.004146627322993021,0.0012805403010522308,0.0028660870219407906
283.889685821775,0.007313462685879438,0.002473106632445533,0.004840356053433905
314.6584876118286,0.008185893478808687,0.0028777384520688037,0.005308155026739883
343.1462325156608,0.006926428753954864,2.433769723341051e-07,0.00692618537698253
346.546132562205,0.001993842468457476,0.0012020020010392117,0.0007918404674182642
364.6064386508616,0.008145301892920193,2.764592282163404e-06,0.00814253730063803
380.2218087667097,0.008690766568158197,0.005331840402553208,0.003358926165604988
408.81945650382505,0.0013409597238009754,0.0009466703716123062,0.0003942893521886691
416.8214130016725,4.1048684219224244e-05,2.528531529620311e-07,4.079583106626221e-05
422.5124825440979,0.0025186661195471358,4.442171164014701e-07,0.0025182219024307345
428.0178907283265,0.0030744489579852966,0.0003388976443136741,0.0027355513136716227
450.8365843962181,0.0014591463747784105,7.50231192456737e-07,0.0014583961435859537
478.34779187013623,0.018330904305975955,0.015513968839792775,0.0028169354661831815
496.7343382219508,0.00813095077272536,0.006373514278268883,0.0017574364944564782
527.0323107747968,0.006733028021143771,0.002969740269045365,0.0037632877520984063
541.1698389638684,0.008314640927190278,0.000864388017140931,0.007450252910049346
572.2754802411234,0.00436974694451747,0.0022653111136403323,0.0021044358308771375
599.4132611561535,0.007540674065145741,0.0001088367094391409,0.0074318373557066
602.9523728072146,0.005026496949397125,8.41740089190264e-05,0.004942322940478099
635.8866365491407,0.01782442934760346,4.317448829682584e-05,0.017781254859306633
654.9164122535489,0.02813483327784229,0.0006234816779487392,0.027511351599893548
722.8912372974751,0.0003234515552616446,0.00019131805087273883,0.0001321335043889058
755.2009977277678,0.0027923412724541134,1.7256570085644356e-05,0.002775084702368469
769.8441722863855,0.004292141004492954,0.0015168785949323845,0.002775262409560569
775.4396392451397,0.014786358780271585,0.007604321628496003,0.007182037151775581
785.2152261623161,0.009833331254770296,0.001367655349787704,0.008465675904982591
816.0909833990443,0.019495174974020854,0.017887726262251193,0.0016074487117696628
836.772303232097,0.009591514939342015,0.007937108434282775,0.0016544065050592394
840.8265308128393,0.0570651801880609,0.042384443870766085,0.014680736317294815
865.4546308380735,0.040744308832779276,0.03436976686767196,0.006374541965107319
872.9017135086093,0.02347729201081048,0.017227474882105975,0.006249817128704505
873.8966086953475,0.04313770855404518,0.037404299635753195,0.0057334089182919865
892.978109439517,0.048442104486017164,0.043477175811110394,0.004964928674906772
905.1926028959542,0.08990726688864434,0.07335735477433034,0.016549912114313996
940.1230218237058,0.016145229838906174,0.004330325613441265,0.01181490422546491
952.2877983902997,0.00526246714087276,0.0008429010195395118,0.004419566121333249
969.3186921672881,0.015088369260960903,0.0006330098703716581,0.014455359390589244
971.3089814379899,0.0013102312661602054,0.0004263598889209685,0.000883871377239237
991.187879720414,0.013592516783151836,0.0011190623864417552,0.01247345439671008
1003.9968277917804,0.00019866695489832777,2.0422715593761732e-05,0.00017824423930456603
1007.7452262793249,0.00020098424269308343,3.2373104348311055e-05,0.00016861113834477237
1026.0404113566021,0.059706656541710104,0.05240551019674592,0.007301146344964187
1027.2153537071013,0.11409466137020448,0.09708275344673498,0.017011907923469502
1037.9631832910532,0.0026559052589393856,0.0021435447605318075,0.0005123604984075781
1055.0976963968708,0.008515868456814547,4.109282939769518e-05,0.008474775627416851
1064.4781979002018,0.11623580893288041,0.10623409625889108,0.010001712673989336
1070.0250591668525,0.018407327300161716,0.0022802999033288513,0.016127027396832864
1086.3127991366548,0.023648302963936184,0.015496396383163615,0.00815190658077257
1094.6205917169366,0.008466006524990626,3.3824773539653515e-05,0.008432181751450971
1118.209521324744,0.010732452785335559,0.002820463765954774,0.007911989019380785
1130.1126654773236,0.018316662188922944,0.007233702704458617,0.011082959484464326
1136.407882214155,0.04012135724687077,0.02679375618978557,0.013327601057085199
1146.9950360272624,0.0047091212130950634,0.00014706054464657395,0.00456206066844849
1170.4267494197907,0.04026208535798934,0.004091086061887133,0.03617099929610221
1176.4734063820188,0.020997310645002244,0.0004891482397955348,0.02050816240520671
1188.393830925535,0.0377202317963342,0.020502494998524627,0.017217736797809576
1191.3965389871967,0.007412035424316705,6.571410806847987e-06,0.007405464013509857
1196.7353016965078,0.03228957584022999,0.016472500761156385,0.015817075079073605
1204.8350559484934,0.023660522550861263,0.0009505048701618814,0.02271001768069938
1223.8029227756524,0.008718411410583935,0.005209890204558418,0.0035085212060255175
1237.2210540708197,0.12507669093359233,0.09799621148389531,0.02708047944969702
1242.9014330965542,0.10494773698625057,0.09514330284465145,0.009804434141599126
1259.3632654819219,0.014231248533695331,0.002191669195153697,0.012039579338541634
1287.0097341317128,0.013285806949334884,0.008707358726777222,0.004578448222557662
1299.0584043052409,0.09679466680355489,0.08483380284867348,0.011960863954881417
1305.685752923569,0.022343765821118758,0.01016238586871001,0.012181379952408746
1311.0598022072002,0.007706512780157325,0.005305246497751405,0.0024012662824059194
1327.8349694366023,0.00375659879181861,4.737250960217601e-06,0.0037518615408583924
1333.235298598612,0.024039027884396044,0.00023296041456697853,0.023806067469829065
1352.46797400014,0.043818145240238894,0.0024705290650975198,0.04134761617514138
1356.3425522186487,0.014017944356837326,0.010557096364772405,0.0034608479920649206
1365.2099956744173,0.0061568563056118904,0.0024094576855822523,0.0037473986200296386
1366.627705056896,0.02710634069949265,0.011195761503521069,0.015910579195971584
1385.1603408786696,0.026319781181214114,0.005468280718684537,0.020851500462529576
1388.5351887445074,0.012772503053202279,0.00033744503167416147,0.012435058021528117
1400.2147190544965,0.023397152812514303,0.004676569398391038,0.018720583414123266
1406.1369739652735,0.005857060256606809,0.0002631100721018744,0.005593950184504934
1413.3855174954185,0.008508872382214368,0.000655314652848474,0.007853557729365895
1425.140433859682,0.028363431827290363,0.006522262185313301,0.021841169641977062
1479.197251705258,0.046467004052360594,0.0013923879290407583,0.04507461612331984
1480.2026227946426,0.006659304204312253,0.0002840487140256468,0.006375255490286606
1486.4705163068127,0.021527214700217064,0.0004160070656972344,0.02111120763451983
1487.7744219850047,0.015073331727745101,0.00021596510296271215,0.01485736662478239
1491.0630759870721,0.02732131458701092,0.0001355619658922387,0.02718575262111868
1496.2645165142505,0.023228597786523444,0.0013124161292619306,0.021916181657261512
1498.9063912034887,0.005463167244972528,2.1650558826789494e-05,0.005441516686145739
1504.218592424329,0.012912312992033586,1.013997603992693e-05,0.012902173015993659
1535.151152280473,0.008302231234725186,4.611752406348146e-05,0.008256113710661704
1545.8964595427828,0.0013320255280286609,0.0003836117981426352,0.0009484137298860257
1567.041531620829,0.008971198540408658,2.3513583647236884e-07,0.008970963404572187
1661.9069766142666,0.03752017649747221,0.00012084161096543028,0.037399334886506784
1671.734174337103,0.04348578101219623,0.005229963383487322,0.03825581762870891
1684.1742814028057,0.21082534917231813,0.03415172155048394,0.1766736276218342
1693.430499192851,0.24205372712499343,0.04396744063956601,0.19808628648542742
2970.1220306244163,0.30742161183178357,0.2226075644057328,0.08481404742605078
3015.559772419335,0.3678693299483228,0.2482031806605739,0.1196661492877489
3030.0142155335798,0.21075968854305727,0.14656205801830857,0.0641976305247487
3036.1603222230247,0.3351376603982945,0.3102363469990435,0.024901313399251005
3055.2814348069537,0.6023306102544737,0.5481877309593066,0.05414287929516702
3057.4027901569007,0.5872092270661746,0.5689823505151225,0.018226876551052148
3064.5185810222833,0.8211623540581641,0.8009559752534664,0.020206378804697722
3082.4336744901093,0.5408680998548765,0.254152749426694,0.2867153504281825
3110.779380992422,0.15669559886468667,0.019524833729581435,0.13717076513510523
3121.3420859605885,0.25943043066692273,0.004586562776669584,0.25484386789025315
3129.9935850811985,0.23930912318304529,0.0024880716577485485,0.23682105152529673
3134.679495533488,0.23307130705555448,0.028247440326128744,0.20482386672942574
3143.0327846929536,0.2102734269051696,0.005864530145065602,0.204408896760104
3181.316140393915,0.2484752529590772,0.02111526427659118,0.227359988682486
3181.5305034533803,0.16324183222183097,0.0738435139044865,0.08939831831734449
3183.2833237624322,0.3688736791616796,0.024101909486266494,0.3447717696754131
3197.73260403984,0.53372292460057,0.16807991191689745,0.3656430126836726
3199.0760749009387,0.547566242845275,0.4172939583666216,0.13027228447865344
3202.2920546856612,0.3799266840005566,0.12230955793402269,0.2576171260665339
3206.3471807296296,0.21934803391081836,9.352021749593476e-06,0.21933868188906877
3219.300890723695,1.4854244095003972,1.1663320797829002,0.3190923297174969
3226.5450398374746,0.6428009231061171,0.44782728045255754,0.19497364265355957
3578.692187798854,0.17203595386230539,0.1309244196861575,0.04111153417614788
3867.1138206069977,0.47832301198429855,0.26269014899217796,0.2156328629921206
3867.989468658583,0.5037552671542074,0.34803924297210886,0.1557160241820985
