frequency_cm1,total_intensity,isotropic_intensity,anisotropic_intensity
1.446247664418091,0.0,0.0,0.0
1.0460259976022332,0.0,0.0,0.0
3.8653707392491505e-05,0.0,0.0,0.0
3.182168352656777e-05,0.0,0.0,0.0
2.5827134619610417e-05,0.0,0.0,0.0
2.2091119818665437,0.0,0.0,0.0
21.72433783373789,0.007338301990819548,2.7762611994353675e-05,0.007310539378825195
28.91771331090392,0.002849192315089929,8.946983887454866e-07,0.0028482976167011832
38.35447670285172,0.0021672027762406273,3.4008394936428786e-05,0.0021331943813041984
52.5150368438186,0.0010761250311280448,1.5897589076520562e-05,0.0010602274420515242
74.25829156736549,0.0012038304507162422,2.6046763280223133e-06,0.00120122577438822
86.65788014311453,0.001979340406283755,3.121551715367477e-05,0.00194812488913008
95.47961173158934,0.002133696631619817,9.474281974117161e-06,0.0021242223496457
103.42095841993856,0.0015986125009212772,7.405739076626569e-05,0.0015245551101550116
129.13308846185402,0.005639190975807587,0.0006965872610746196,0.0049426037147329675
145.1012393486081,0.0017856112473283881,0.0004125886494376033,0.0013730225978907848
154.52568243803196,7.285749111938118e-05,7.757081737715389e-06,6.510040938166578e-05
164.51103768358252,0.004893126166817764,0.0014389828383083354,0.0034541433285094287
212.49845379806638,0.008996121628286606,0.005908234495028326,0.003087887133258281
242.73970349217467,0.007037397602833338,0.005764994512862196,0.0012724030899711422
285.0107474682388,0.0027888461069225166,4.290540837369481e-06,0.0027845555660851473
313.79525798212444,0.0019000763208720038,0.00023059381950405635,0.0016694825013679475
384.3310537347801,0.0015128602485469827,6.684935012384333e-06,0.0015061753135345982
388.3727901966586,0.008057731387974538,6.247651769482866e-09,0.008057725140322769
388.7581337300062,0.0072193869304613256,1.3902692141183184e-06,0.007217996661247207
458.7044365982588,1.0599150846762893e-05,6.781704092372793e-07,9.920980437525613e-06
506.91576516039817,0.005342367537470162,0.003456837220638461,0.0018855303168317011
552.4203640157596,0.0043942772363350585,0.0019346269001775304,0.002459650336157528
569.4968319394997,0.004285074580943458,0.0007358391911365326,0.003549235389806926
729.0135337419205,0.0005397681064784105,1.5589441504269845e-06,0.0005382091623279835
733.3402085622184,0.0003701849217509688,2.8526424106240386e-05,0.00034165849764472843
741.4627870631866,0.0005262082420351173,7.583958640079205e-06,0.0005186242833950381
760.6504884888955,0.001035511946404425,5.0113030597153865e-05,0.0009853989158072711
808.9113278404201,0.00163771286046694,4.044978594105133e-06,0.0016336678818728348
839.3223141806628,0.005001149853011012,0.0027808920354199904,0.002220257817591022
896.9140151825756,0.011461387926368164,0.006988340715225756,0.004473047211142408
932.0124493558243,0.004349600484465499,0.0019820278538160187,0.0023675726306494806
943.3998460279404,0.014118223281001617,0.013685431095301135,0.00043279218570048156
967.6531248864604,0.04381451111187538,0.033970350995212534,0.009844160116662844
980.5461197955862,0.0027748517690355527,2.6900398896337096e-06,0.002772161729145919
1022.9425668551107,0.0019228822382247861,0.0008728796391495366,0.0010500025990752497
1037.1382054123867,0.009633156756981617,0.006158544089915482,0.003474612667066135
1044.5474387686338,0.012712606744459926,0.0017089907129876018,0.011003616031472324
1055.0004633369692,0.018812453828195866,0.008559803320180368,0.010252650508015498
1077.6369188571005,0.03965028134060447,0.021081781653591945,0.018568499687012522
1081.2417573799544,0.04830160113475056,0.03630338674052576,0.011998214394224797
1090.8273118862282,0.04032548248690582,0.00019261749549580182,0.040132864991410014
1106.9428912199126,0.029689432826718234,0.00021960971737419274,0.02946982310934404
1130.7744259135957,0.09072612635620836,0.03784217444291073,0.052883951913297624
1144.6008370094528,0.010955494154798899,0.0034503485169574727,0.007505145637841427
1155.1246642516353,0.0023859765432619334,0.0006189528564376694,0.0017670236868242643
1205.2219489474303,0.029551604662297358,0.01665028777316916,0.012901316889128196
1235.4056996969518,0.0024171883636898025,0.0004174985019760086,0.001999689861713794
1247.848356812724,0.006265918796736615,0.0040383196178271005,0.002227599178909514
1272.021923135824,0.002444674693895512,0.0009826030718283253,0.0014620716220671872
1280.0431982848527,0.000988334679124466,9.189941113507668e-08,0.000988242779713331
1292.324929488914,0.004693103723320823,3.6878870812248618e-06,0.004689415836239598
1308.6012084111283,0.002886253438232106,0.0013149072631997382,0.001571346175032368
1321.26448711013,0.0012395937250856935,0.0003338496080943852,0.0009057441169913083
1328.6957048550566,0.005883256565628025,1.339330793829331e-07,0.005883122632548642
1331.2372612878642,0.08242640104063532,0.0001777395801811031,0.08224866146045422
1337.8735910465537,0.012961548805144519,3.4863862239298625e-05,0.01292668494290522
1339.8484866452793,0.0023732142266715615,1.4806451274802175e-05,0.0023584077753967593
1343.535740075313,0.04183253731518238,0.001310768859090721,0.040521768456091664
1368.482747174113,0.010340823833553524,0.00012419628048663476,0.01021662755306689
1373.6103311150516,0.0056963396590510446,0.0034148213038213424,0.0022815183552297026
1402.3713749415192,0.012942493051097171,0.005235666521911553,0.007706826529185617
1412.2855568984553,0.019972017084624677,0.012222941941789817,0.007749075142834861
1417.5081392557472,0.004531871716524022,0.0009184599187929437,0.0036134117977310786
1421.5231273221314,0.007889998580956244,0.0007515334718408819,0.007138465109115363
1470.8862861304979,0.022865606348783516,0.0006770715140671784,0.022188534834716337
1471.4927375382422,0.018227657760746748,0.0012782931027945739,0.016949364657952173
1480.1642512054066,0.0015060693126924217,9.266992150283819e-05,0.0014133993911895836
1481.330681784087,0.03861529809569014,0.004801920291742477,0.033813377803947664
1483.8815024712092,0.09851044115939823,0.0006741698122758395,0.09783627134712239
1485.2017642233764,0.045316357947221955,0.00831169955499146,0.037004658392230494
1489.8355372716053,0.010296155490769404,0.001230738404987903,0.009065417085781501
1497.9313815362455,0.004431609988510068,0.00024815133737462965,0.004183458651135438
1500.2704987328646,0.001972290213427895,0.0011654627999347477,0.0008068274134931471
1504.8835470052009,0.0005200730201490227,5.144784130453447e-05,0.00046862517884448823
2402.257819073348,0.4809860486529488,0.30739162478936666,0.17359442386358215
2402.6151982639976,0.512490337464536,0.3242568772445863,0.18823346021994974
3027.590567720426,0.029026892040594166,0.022463164860913144,0.006563727179681024
3028.841276774771,0.9504025602536984,0.9327086483756438,0.017693911878054594
3030.4909749972503,0.5573143739110653,0.4796033746501753,0.07771099926089005
3033.8332310317833,1.293104269462707,1.172183140974701,0.12092112848800604
3037.203832179153,0.03670294352413896,0.02088986194943681,0.015813081574702154
3043.4623520815076,0.10547793524527022,0.05489031338384249,0.05058762186142772
3052.486665889847,0.6948955517014789,0.003957353816134141,0.6909381978853447
3060.16767960215,0.02918929999474553,0.01485493999678453,0.014334359997961
3064.1901668770633,0.7212439144387067,0.6958726718574046,0.02537124258130205
3066.3851875348732,0.46494414285488483,0.3287753829729854,0.13616875988189941
3069.9220621317127,0.36705596454554723,0.18109755280868317,0.18595841173686406
3072.149874223864,0.7416724934305592,0.5113778694605057,0.23029462397005357
3080.1636870510247,0.31005445791888786,0.30535377843554745,0.0047006794833404225
3080.3045175422894,0.2210115429428283,0.2084538135848841,0.012557729357944185
3083.1771623069994,0.025616215660886465,0.019940080072757216,0.005676135588129249
3095.602340789716,0.05142281756151947,4.939803061183509e-06,0.05141787775845829
3103.0904861966815,0.18284957763912435,2.118190258365085e-05,0.1828283957365407
3110.0404913021384,0.23393627520885482,0.011421781581769213,0.2225144936270856
3125.4978798452985,0.04752788195078097,8.374283281960367e-09,0.04752787357649769
3128.885456603338,0.02119379356327539,0.00264249072944395,0.01855130283383144
