frequency_cm1,total_intensity,isotropic_intensity,anisotropic_intensity
0.8835512111223919,0.0,0.0,0.0
0.046743007689261686,0.0,0.0,0.0
1.4501413542447355e-05,0.0,0.0,0.0
1.787598183689509e-05,0.0,0.0,0.0
2.5045309587115663e-05,0.0,0.0,0.0
0.809566886176469,0.0,0.0,0.0
19.444482858847962,0.00861666631532418,4.308011933964078e-08,0.00861662323520484
19.773387738575973,0.00872644118252704,2.315695247526571e-08,0.008726418025574565
27.493350852219784,0.03265290441784705,2.6673857432616266e-06,0.03265023703210379
51.97697956030706,0.01845334309605872,3.871846413634631e-08,0.018453304377594584
52.241758412632045,0.01818777858384689,4.7341488010872874e-09,0.018187773849698087
58.75431426971992,0.0058539648785218305,0.0011713724471844658,0.0046825924313373644
86.85535333069127,0.0019072552594457182,2.7274580803088067e-06,0.0019045278013654094
87.03840360122685,0.00191379762773173,4.768911147635855e-07,0.0019133207366169665
96.81425550409287,0.0009251235587365371,0.0005478985634720453,0.0003772249952644918
129.4683989965733,0.00046292858292879734,1.4472528428765351e-05,0.000448456054500032
142.43674588746313,0.01057433321777883,5.021984396582542e-08,0.010574282997934864
142.8648236991346,0.010798267103480065,8.414165056936542e-08,0.010798182961829496
167.96300674129571,0.012464673165280639,0.005685832606981909,0.0067788405582987305
176.4334113521095,0.00848444954367728,4.782707142388078e-08,0.008484401716605857
176.6960897653815,0.008335011417608694,1.04456148837638e-06,0.008333966856120317
246.04078926035308,0.009046781400298774,0.004962054226608398,0.004084727173690376
249.40735534065158,0.002127335037499013,7.874509067294852e-06,0.002119460528431718
249.66726744379162,0.0022458735771876013,1.901591315843473e-07,0.002245683418056017
290.3096873950219,0.0035514401333171944,0.002234718102822933,0.0013167220304942614
291.54946068205425,0.003354262440843626,2.340180927929454e-05,0.003330860631564332
291.8560359657912,0.0033253116070970797,7.410226048946704e-06,0.003317901381048133
303.2313100773939,0.006591784145236715,4.813513501429787e-06,0.006586970631735285
303.561599818815,0.006812279531479151,9.685015346996592e-06,0.006802594516132154
309.824085052603,0.038121837152150534,0.03811905409038075,2.7830617697803056e-06
398.00888508816485,0.00028313674631093907,0.00022850635349351225,5.4630392817426824e-05
436.5876902912224,0.004199481543933252,3.587581845490372e-07,0.0041991227857487035
436.903556909002,0.004189848010879144,2.3824553632581378e-07,0.004189609765342818
477.76606930135006,0.00385392273301345,2.6452179446340355e-06,0.003851277515068816
478.4186623723356,0.003940185033171368,5.2311636716233395e-05,0.0038878733964551344
479.49315448376257,0.02256070615429758,0.01999175856565167,0.002568947588645913
520.3684466852764,0.0158947994660879,1.7095226003933813e-06,0.015893089943487506
520.6254713217751,0.016432601204383144,4.598229788207772e-05,0.016386618906501067
528.2280481747648,0.05679917279216467,0.0566706217862726,0.00012855100589206895
559.4928117836765,0.0019592935971911194,1.3675232026550632e-06,0.0019579260739884643
559.5572424679553,0.0019859985226229667,1.49057980040349e-07,0.001985849464642926
576.9895027301561,0.0007619409118222401,1.230315504850981e-05,0.0007496377567737303
588.6501013262925,0.015472506145635737,0.013974432728492506,0.0014980734171432298
592.8791684335822,0.02276857463960551,1.0068458068225452e-06,0.02276756779379869
592.9820138018033,0.02312463488730359,1.73124990104858e-06,0.02312290363740254
690.7326162458054,0.1089191898177215,0.10788679202766181,0.0010323977900596854
708.9521771574933,0.020888030881773045,5.925951062438534e-06,0.020882104930710608
709.1389096393717,0.020434526097990093,3.149274495403095e-07,0.02043421117054055
758.7618478914892,0.0011791601233451941,1.19047728861062e-05,0.001167255350459088
759.0294084152281,0.0011698015469427947,7.946894177331911e-07,0.0011690068575250616
763.7359660513692,0.01795627802106622,0.016724365503600777,0.0012319125174654435
778.8558646244926,0.01845633695455373,0.011751449170868093,0.0067048877836856395
780.7169091598014,0.003909220485746503,9.168001393054552e-06,0.003900052484353448
780.8246765086586,0.003912378994979157,3.4032941190902552e-06,0.0039089757008600665
820.5787285984733,0.183735597306309,0.16328815280936998,0.020447444496939034
822.7773882616127,0.039409534156954744,1.6537519516199277e-05,0.039392996637438546
822.8109097635256,0.039255764249525954,7.114095119976099e-06,0.03924865015440598
875.3202739792366,0.004994887246852564,2.2103212548996428e-08,0.004994865143640015
875.3830654634004,0.005086705911533831,1.1611450154650127e-06,0.005085544766518365
879.5817295596906,0.0020769250185484803,0.0016684300765210987,0.0004084949420273816
974.4639906239386,0.003361193762042134,1.556255065589616e-05,0.003345631211386238
974.6674641138984,0.0033940862482067895,2.1269196097715837e-06,0.003391959328597018
976.0113212364469,0.009418819004206401,0.004505409783145555,0.0049134092210608455
1012.6139534937203,0.00014400266897107188,1.5108999935135223e-06,0.00014249176897755835
1012.7424134716472,0.0008696711195745747,0.0003370820285065702,0.0005325890910680045
1013.1860740508143,0.010369639754725124,0.0045951640778994895,0.005774475676825635
1076.3494779259913,0.07748176683472559,0.0760778242933563,0.0014039425413692828
1077.1668544505198,0.04561361071244768,2.0719697872802116e-06,0.045611538742660405
1077.2395242986133,0.045010773779636234,2.2770291858670702e-05,0.04498800348777757
1082.6255079445011,0.04685778885834309,1.2416796587862977e-05,0.04684537206175522
1082.6574989388675,0.04575476641024713,3.3149936186955483e-05,0.04572161647406017
1083.2564055906184,0.5646415751089239,0.5466288266249071,0.018012748484016832
1122.679180632808,0.0049285954817202575,0.004322747004584202,0.0006058484771360553
1123.0177113115028,0.0091223103766946,6.917696177828065e-07,0.009121618607076817
1123.1519056544525,0.009313698314316282,5.034638825544831e-07,0.009313194850433727
1164.0512908019573,0.03257286370807765,0.027487632263716068,0.0050852314443615865
1164.7024429154762,0.011505884134497886,0.0005068673619696996,0.010999016772528186
1164.766550351656,0.011224830183899538,4.3343799312851064e-05,0.011181486384586686
1173.6768488164541,0.005596644175858802,8.53912985195489e-08,0.005596558784560283
1173.7151058048,0.0051062701768795305,4.0771515600743023e-07,0.005105862461723523
1173.7684942780259,0.0042606172849924025,5.634342301397954e-07,0.0042600538507622625
1183.9017675726423,0.05492173998279723,0.034173642842820776,0.020748097139976458
1184.0346732767186,0.04565279340920683,0.0007678889122376911,0.04488490449696914
1184.0548664562534,0.045287321551432835,0.0006025357952271213,0.044684785756205714
1211.6877023353588,0.02690977004772764,4.557025267064474e-05,0.026864199795056998
1211.753050615667,0.03079674127415324,0.003604980688602451,0.02719176058555079
1212.007652575037,0.12580120126055705,0.1070354600711228,0.018765741189434252
1289.6059051993025,0.20481282346317864,0.19477718237501776,0.010035641088160885
1289.8857544675031,0.02605379549136715,0.00030995456555657106,0.025743840925810578
1289.9273258746052,0.02615776829945659,0.0010221223482995026,0.025135645951157085
1309.2212425936646,0.060845156244266084,0.05868412712638116,0.0021610291178849263
1309.6429923654307,0.012197063913321678,0.006179550990975436,0.006017512922346242
1309.9630621907415,0.0123335816519951,0.0065847769500317205,0.0057488047019633795
1325.2809206367913,0.032487126015473725,0.00013868119728896163,0.03234844481818476
1325.5146358476513,0.0784538605737432,0.04641576522728949,0.03203809534645371
1326.1031977824755,0.3742941713228268,0.3403335421195718,0.033960629203254974
1469.4711261000675,0.0018646449427244132,0.00178472909789101,7.991584483340325e-05
1469.7451297950436,0.0006600122036806484,5.7393611433443544e-08,0.000659954810069215
1469.8175810466325,0.0006353209178711028,1.4308725163915928e-06,0.0006338900453547112
1493.330859177469,0.032352204701629396,1.2105044036195594e-06,0.03235099419722578
1493.39044351718,0.03608072195774657,0.00012934911263827578,0.0359513728451083
1493.4262607385895,0.05237156222216994,0.00020870877320714533,0.05216285344896279
1494.120951047422,0.018501003854717556,2.044027029830605e-05,0.01848056358441925
1494.1450352808126,0.018696288865466353,0.0019391363576077806,0.016757152507858572
1494.1587487701222,0.017833388123626434,0.013218920803375058,0.0046144673202513755
1506.2497114753803,0.02366627418722824,0.006683261228035285,0.016983012959192956
1506.284458863581,0.031150743974593095,0.021728126428855618,0.009422617545737475
1506.3090782071042,0.024029648309020442,0.007346618146345095,0.016683030162675347
1529.3302588560296,0.0406079812884667,0.008516920686087203,0.0320910606023795
1530.5502624706064,0.0264165854258788,2.475438877024007e-06,0.026414109987001777
1530.5677615212483,0.026428250297145756,3.3260484398318334e-06,0.026424924248705923
1656.1285005338466,0.020322557960402967,0.01037168122745992,0.009950876732943047
1657.2544410187932,0.05849852869853815,2.2287333167530204e-07,0.05849830582520648
1657.393858882372,0.05952095889488742,7.006991952932926e-07,0.05952025819569213
1663.1726104148693,0.09599650190920071,0.006029212541345645,0.08996728936785507
1664.1244875042917,0.1925097196481414,1.019209570569588e-05,0.1924995275524357
1664.3100298694021,0.1964412893479939,4.586472069409145e-05,0.1963954246272998
3039.815519583663,0.09931677603629975,0.0014026183554917493,0.097914157680808
3039.850936664908,0.11652481942890756,0.019351119126249455,0.09717370030265811
3040.108154510458,2.0330936758077724,2.030114460943421,0.0029792148643515435
3102.5515320582163,0.34549290768991675,0.0022273661040963988,0.34326554158582034
3102.6183812400004,0.4401988619586201,5.653632173696315e-05,0.44014232563688316
3102.629087513039,0.15078407841899835,0.006206531313956883,0.14457754710504148
3171.840407282807,0.48500095946551947,0.08689617524849286,0.3981047842170266
3172.020472936423,0.4860424025871555,0.09119765462433599,0.3948447479628195
3172.117647502989,0.46864659811473874,0.1538639444241515,0.3147826536905872
3192.530726689945,0.24450566184156267,0.015234430411288219,0.22927123143027445
3192.7840764329208,0.27138557594920065,0.04856216863143506,0.22282340731776556
3193.1365672466904,0.5043322670755681,0.32855466175055814,0.1757776053250099
3198.2423917571596,0.35459367626891847,0.0015104216677981669,0.3530832546011203
3198.518231972524,0.33211923323803777,0.0031643828827288174,0.32895485035530897
3198.9359299965486,0.0702789531523399,0.01397299752213961,0.05630595563020028
3221.6368507525162,0.39354852686372593,0.0008975283092992703,0.39265099855442664
3221.736969035373,0.46859173214860456,0.10896375947528442,0.35962797267332014
3222.0500282464736,1.1488378273773177,1.1022373233031257,0.04660050407419197
3240.667551389556,0.6848361791797952,0.40191715253444105,0.2829190266453542
3240.7611394595688,0.8271144378255375,0.5626030321112121,0.2645114057143254
3241.0378669340694,0.8209776669259237,0.5585234726238354,0.2624541943020883
