frequency_cm1,total_intensity,isotropic_intensity,anisotropic_intensity
1.77802536434484,0.0,0.0,0.0
1.4420623415288747,0.0,0.0,0.0
0.830249067454526,0.0,0.0,0.0
2.0998186949443174e-05,0.0,0.0,0.0
1.6280103165428704e-05,0.0,0.0,0.0
2.1668758425238326e-05,0.0,0.0,0.0
12.323031199330359,0.010390609260487455,9.638670324663086e-05,0.010294222557240823
21.403565525556946,0.007124813529751371,3.238431660378917e-05,0.007092429213147582
23.0471407625295,0.0022467959451817968,5.8143243650529306e-05,0.0021886527015312677
31.58850776449754,0.001280045980105142,1.7629853375931298e-05,0.0012624161267292108
41.552919165629724,0.0066538895235110996,2.0307088456954856e-05,0.0066335824350541445
62.93865299838038,0.0007415317387902946,1.2431395395334485e-05,0.0007291003433949601
64.82370286599482,0.0019629709223396505,1.691975012144778e-05,0.0019460511722182027
80.30429220403735,0.0018455273365799033,1.4134576661265595e-06,0.0018441138789137767
98.59178271954364,0.004754697478746173,0.0008406937824474784,0.003914003696298695
102.97159993373907,0.003795941365286933,0.00024035713223984707,0.0035555842330470856
106.7820240400553,0.007350881439337882,0.00044179392864888246,0.006909087510688999
122.59738045983487,0.0014714025239431115,0.0013711408644247766,0.00010026165951833492
146.18338036698296,0.00172495206787539,0.00031920439953371467,0.0014057476683416753
158.89351388683977,0.0016605437408453157,0.00047064892470317324,0.0011898948161421423
168.450252712184,0.000332328111599981,8.606473886345992e-06,0.000323721637713635
181.29997861423763,0.0015498142850067472,4.612256941110876e-05,0.0015036917155956384
215.36781933736833,0.00033637861021587487,0.0002316271336109996,0.00010475147660487526
227.6968167444039,0.004632285753321691,0.0030664084256769243,0.001565877327644767
234.56219105009825,0.0063848124414784165,6.250725141648469e-06,0.006378561716336768
245.6009356399834,0.00020023626392330423,6.411394809888922e-05,0.000136122315824415
265.79105781780197,0.00883690557643037,0.008523123646607043,0.00031378192982332756
275.47156428749065,0.00428215105652685,0.0011333585376295746,0.003148792518897275
303.76395353604437,0.0027352580404235464,0.0011789693461710206,0.0015562886942525258
310.40333818289776,0.005108469970355405,0.0018630226662141134,0.003245447304141292
320.9041221066564,0.0023302417035417633,0.0006160328861925387,0.0017142088173492248
326.7429915307562,0.001959471400621808,0.0006293376543027258,0.001330133746319082
336.41824708137597,0.0003522485934767055,2.2053852353253154e-05,0.00033019474112345234
371.9624817125528,0.002824868538961566,0.002069506563532933,0.0007553619754286328
389.18901359609305,0.006854424854899786,1.7535464097314938e-05,0.006836889390802471
424.65871188864753,0.0011379311144620395,2.7224785433938048e-05,0.0011107063290281014
454.0576588260766,0.00040532354953526427,4.217983056233708e-06,0.0004011055664790306
466.3670701284832,0.0007208945799184259,6.252176846909392e-07,0.000720269362233735
476.72164141507415,0.0060047247262043765,0.004802344551172728,0.0012023801750316485
497.274128984609,0.012189421260941632,0.005162056808273953,0.00702736445266768
539.3346938686345,0.016960316601188474,0.004811435812422707,0.012148880788765765
564.7892189678067,0.009076650798451213,0.002954714559232338,0.0061219362392188744
565.8743459252037,0.004122394252382918,0.0014194808009955712,0.0027029134513873467
646.5138860915463,0.008695766085555303,0.003922125141985074,0.004773640943570228
721.9718274986624,0.005466450209107862,0.003413961321559866,0.002052488887547996
733.5444257411906,0.01705681371931446,0.013026270633647086,0.004030543085667373
743.0584661327885,0.005537925318164961,4.181216568856199e-07,0.005537507196508076
748.8196280940889,0.025487818171340108,0.023426995559476214,0.002060822611863894
754.7459780612214,0.0071931552435050726,0.000635216951339169,0.006557938292165904
762.7140217288752,0.028566511469573588,0.02348793821325075,0.005078573256322837
788.8936345465415,0.030840559644714598,0.019965550876076165,0.010875008768638433
790.6382731290146,0.011313588758904565,0.0034851957656178902,0.007828392993286675
809.9079975044887,0.0058312339089806224,0.004243576515250702,0.0015876573937299205
815.920598554108,0.003122701593565586,0.0003470688474609181,0.0027756327461046677
822.7672453999573,0.056653148518270205,0.04529689407997504,0.011356254438295164
844.6384866193382,0.019008157169752,0.013367863531979376,0.005640293637772621
866.4284439651178,0.05518454065419729,0.045302176849752705,0.009882363804444584
882.9282350037178,0.007578446383014899,0.0014112815606481565,0.0061671648223667426
891.5733704744206,0.013133516130882568,0.007177678973672147,0.005955837157210421
906.6276305084721,0.030299053249400385,0.024250762732379267,0.006048290517021118
913.7157250543423,0.002391022220390276,0.0018685191671123501,0.0005225030532779256
949.4267376110115,0.01983918571986799,1.7434160893890807e-05,0.019821751558974098
954.9447047825902,0.0260700406060869,0.01680357710022154,0.009266463505865359
963.7987663052056,0.02250585748662487,0.012516772894118606,0.009989084592506262
982.7182765273841,0.005268966699324493,0.000867956547601924,0.004401010151722569
1000.3918243741747,0.014482036766944106,0.0028535769379149263,0.01162845982902918
1003.6789359845235,0.0231570583862847,0.005942387153894175,0.017214671232390524
1008.0298237960931,0.0004772623481532058,2.3249274553057827e-05,0.00045401307360014797
1014.7353522798128,0.014875889886922185,0.009467844681832791,0.0054080452050893945
1024.059725793219,0.18073366382779166,0.15930893229234272,0.021424731535448927
1033.7097782313379,0.003813712371214435,2.2981221582299136e-05,0.003790731149632136
1038.8302812026604,0.0016281063694149648,0.0005814844973315253,0.0010466218720834395
1064.7307609036088,0.01242315637018018,0.005908648477837782,0.006514507892342397
1071.696928024474,0.02081968675052565,0.0073888057114327175,0.013430881039092932
1085.6143720697155,0.01815404438287928,0.0036340836745479667,0.014519960708331314
1092.859080101249,0.001376162995349069,7.568567748192503e-07,0.0013754061385742498
1103.5957486465286,0.01248460284126328,0.002552719689780569,0.00993188315148271
1108.0623162169493,0.027653193174700205,0.0135237609492285,0.014129432225471706
1110.6271051920091,0.012897602488330957,2.47055983573332e-07,0.012897355432347383
1116.3088410769612,0.03778994425432547,0.0004921502737874903,0.03729779398053798
1127.5172989826126,0.0576387865093401,0.003508614108752183,0.05413017240058792
1142.0758017171809,0.0043184999494253595,0.000328744132453124,0.003989755816972236
1145.1799152209178,0.045225276593305996,0.030802808518110875,0.014422468075195123
1168.5837282584168,0.01350322810040058,0.004575786811189485,0.008927441289211094
1176.255611612479,0.0031318431262814628,0.0012787851912664677,0.001853057935014995
1182.886751721983,0.011139924259588709,0.0017930683596916969,0.009346855899897012
1195.919579352861,0.006526768131784614,0.0002683778321872648,0.0062583902995973495
1200.2794095435088,0.007424774211037653,0.005367431659230054,0.002057342551807599
1210.547143864935,0.03541930632449939,0.015742353236465955,0.019676953088033435
1227.491208880617,0.006139568505122279,0.00176880546759323,0.004370763037529049
1244.0976563638387,0.009694479637532382,0.000665529063361005,0.009028950574171376
1260.0275600228097,0.003904603372492561,0.0002524151517158552,0.0036521882207767057
1267.863960417227,0.01074899191698218,0.0033314103017621265,0.007417581615220054
1290.82594851163,0.018088035492725467,0.009170953580250631,0.008917081912474834
1297.6948372100555,0.03581687869410681,0.010918077274853338,0.024898801419253474
1299.212930574005,0.009777505879284758,0.002405405550923594,0.007372100328361164
1306.1114004737806,0.017609379057028793,0.010593193582965245,0.007016185474063549
1311.3160101452743,0.025628420132028158,0.013025744955173422,0.012602675176854735
1318.7752937760742,0.014230345923570292,0.00344937874245316,0.010780967181117132
1322.1207304443656,0.006290158537333893,0.0009038818078202443,0.005386276729513649
1332.1635619690758,0.06299884630427574,0.04121003249644229,0.021788813807833457
1334.6892294495933,0.04346101219619061,0.023966567651669452,0.019494444544521157
1339.8322870909146,0.033439525737932976,0.001994000149419438,0.03144552558851354
1340.9350761751273,0.044713858014628086,0.03663997750521106,0.008073880509417028
1343.7700622759335,0.018861737441396378,0.0003762863356598474,0.01848545110573653
1353.4178032568893,0.03987547810671899,0.0010513292953464061,0.03882414881137258
1358.411805331322,0.004027746841443738,0.0004104146816883564,0.003617332159755382
1364.3947075679434,0.015816483630532813,1.5667670010159405e-06,0.015814916863531796
1367.989424661391,0.008895297957707663,0.0006691346153519478,0.008226163342355715
1374.612404000469,0.00920970695557074,0.004839088387005266,0.004370618568565475
1382.2146349371278,0.006127088309373434,8.186558871100413e-06,0.006118901750502333
1391.1704091895429,0.01761820289459634,0.003886908769191018,0.013731294125405323
1392.0604241762292,0.00443749063146559,0.0020088887912963816,0.0024286018401692084
1407.6147419578174,0.006894820449814969,0.003992372323956933,0.002902448125858037
1412.0698981479886,0.0057017395839897645,0.00014005940471164944,0.005561680179278115
1412.9490323886469,0.0020870397324878913,0.0010588089973157305,0.001028230735172161
1419.7665273726204,0.002757014417197464,0.0012693503661615779,0.001487664051035886
1422.4217033420196,0.009927550586507763,0.004416091529164648,0.005511459057343115
1478.995076252002,0.07094749132997419,0.0007067352456340406,0.07024075608434015
1479.461589959391,0.01594102610745098,0.0009636448850396066,0.014977381222411374
1482.9571018160252,0.03310464118804302,0.00018607404630059408,0.032918567141742426
1484.2865040633167,0.015292207760698518,0.00032459112402405524,0.014967616636674463
1485.432167728803,0.02158621776443228,0.0004025536927253836,0.021183664071706895
1487.1331692943513,0.017592576843836867,0.002465347246987999,0.01512722959684887
1488.939744052996,0.036136508291985704,0.00013769303931566217,0.03599881525267004
1492.0139935382322,0.045777569727749684,5.3414738532861264e-05,0.04572415498921682
1493.604508854164,0.03263761496316166,0.0015352687654075984,0.03110234619775406
1495.4620991995134,0.01859269556663931,0.00015911773953934997,0.01843357782709996
1497.2308384834494,0.014726165508387372,0.00023944471046231187,0.01448672079792506
1498.1242884172343,0.012843041553637613,0.0003911981325866674,0.012451843421050945
1501.958642450066,0.006918928742026807,3.1271235542424384e-05,0.006887657506484382
1504.3113058381098,0.011875433000118184,0.0032909218858038604,0.008584511114314325
1506.094794818477,0.003383065381028487,1.2238801218475137e-06,0.0033818415009066395
1506.4180765748151,0.00448785641004586,0.00014728365135041873,0.0043405727586954415
1513.8532120434384,0.009130649081722364,0.0010932112042907037,0.00803743787743166
1555.5561500445942,0.007261185241635998,0.0004420155442756037,0.006819169697360395
1675.0967519361104,0.09701804138275166,0.003339699351013241,0.09367834203173842
1685.1176952451106,0.12269091043574301,0.009030617525197925,0.1136602929105451
3014.586104696559,0.36191349101869635,0.16475055021865911,0.19716294080003724
3023.791930938237,0.6756400226326581,0.5684881285019411,0.10715189413071706
3026.496833398963,0.909226793267927,0.7858950147678452,0.12333177850008187
3031.177002513967,0.06727586053510155,0.06519177113876919,0.002084089396332361
3034.010807901633,0.1928369848020799,0.13649133535831126,0.05634564944376862
3036.441987237968,0.5566855912156851,0.40977889451981714,0.14690669669586792
3037.1041010301797,0.26274203433475507,0.03344361793552031,0.2292984163992348
3037.9396971526453,0.8994795053032194,0.823463491955732,0.07601601334748738
3040.1853328719976,0.39721413705341874,0.26233387499727695,0.1348802620561418
3041.880433748075,0.11633363073373121,0.011594495811095494,0.10473913492263572
3042.702826455291,0.6854403619311187,0.6464453239646412,0.038995037966477464
3050.255652880029,0.383107519642476,0.33364094067051536,0.049466578971960634
3052.037147745731,0.6785245782585178,0.633214141452832,0.04531043680568585
3058.4750568557283,0.84461895597798,0.8027172963020036,0.04190165967597637
3059.832076910631,0.43418086293305214,0.26270247556296206,0.17147838737009008
3067.035627959526,0.32227651799191837,0.017649044147580638,0.30462747384433775
3069.640986827963,1.3491367342468386,0.7055086722103179,0.6436280620365208
3070.348252191621,0.23436220259295787,0.0002869015198924529,0.23407530107306543
3074.389970654739,0.3252258729358538,0.20026372902449202,0.1249621439113618
3074.7085785067848,0.17560944701762973,0.003198175187386529,0.1724112718302432
3078.032555921444,0.5660264413398124,0.2999570711756797,0.2660693701641327
3086.6031290183964,0.16657646446686172,0.004384034341805283,0.16219243012505644
3087.5022189501196,1.0487414058530353,0.5241741148036222,0.5245672910494132
3090.2215367384783,0.140768265555688,0.10011297591392096,0.04065528964176704
3094.200515903321,0.9415282820901173,0.5730389387856508,0.3684893433044665
3096.63127056046,0.19250430827999754,0.11085905943049702,0.0816452488495005
3098.2317818930487,0.02133723037179353,0.006551729282555388,0.01478550108923814
3106.4849783144273,0.03900964945758837,0.005368128667964278,0.03364152078962409
3117.9094159237657,0.311831168801795,0.023417035693511133,0.2884141331082839
3120.3673244108663,0.09685482883923235,0.0004857222486071775,0.09636910659062517
3138.9833823671775,0.16054782799142198,0.004155697298132404,0.15639213069328958
3178.0495525221,0.3685299018486048,0.2309785727726619,0.13755132907594292
3192.4047615665604,0.2626811701868721,0.004159817244821083,0.25852135294205103
3207.6835030057714,0.6710235816680588,0.33946015000877816,0.33156343165928065
3226.7569118086676,0.8588381217923973,0.6212682661656215,0.23756985562677577
3852.624457293171,0.5456378634859596,0.22279820111651963,0.3228396623694399
