frequency_cm1,total_intensity,isotropic_intensity,anisotropic_intensity
1.1100658136413821,0.0,0.0,0.0
1.0005597441529028,0.0,0.0,0.0
1.2700132177373456e-05,0.0,0.0,0.0
7.643368780956508e-06,0.0,0.0,0.0
1.0122309935132103e-05,0.0,0.0,0.0
4.280204983390975,0.0,0.0,0.0
15.604582706048914,0.009169703487744088,3.4162175222976035e-08,0.009169669325568865
26.397620229647046,0.0007016754668357115,1.2776470165024705e-05,0.0006888989966706868
33.446180344493534,0.002490231347157843,8.401717467264081e-08,0.0024901473299831704
38.51792262329629,0.010367696951990031,3.741374570840057e-09,0.01036769321061546
77.93199864733211,0.0010236043676937574,0.0001240575093326357,0.0008995468583611217
80.04008314387661,0.0009094436652542672,7.0290820624825366e-06,0.0009024145831917846
87.11117757228467,0.00042696284144187036,4.434562404971545e-08,0.00042691849581782065
127.00724771029213,0.0007872230081849376,1.8295191727950847e-06,0.0007853934890121425
137.3324730033594,0.0002027526059899464,5.397106341999824e-07,0.00020221289535574642
148.16977840007954,0.011986154639698286,0.007397077562550885,0.004589077077147402
159.20960215934946,0.00041208519509304656,7.396038938131069e-05,0.00033812480571173586
169.9981644654776,0.00013864616261151787,2.2190700163520535e-05,0.00011645546244799732
172.53386801143986,0.008756074433761066,0.0059139445686480305,0.0028421298651130356
175.5230471079721,9.518418349795297e-05,1.5989762254982363e-06,9.358520727245474e-05
231.71030719038927,4.898870405295099e-05,1.5218644363162488e-05,3.37700596897885e-05
246.22588411983338,2.1159687115073865e-05,2.2936328855711908e-08,2.1136750786218154e-05
252.61937823831883,0.00011048276475087278,1.5218486105031501e-05,9.526427864584128e-05
328.2734020008834,0.001473940874983837,1.055551165072378e-06,0.0014728853238187647
348.45144141699024,0.0007694102844226656,1.630881056198167e-06,0.0007677794033664675
368.88472942168835,0.00906996877246382,0.0005831148093248165,0.008486853963139003
393.59945649245907,0.0009982889330810213,0.00040148159737183123,0.00059680733570919
429.87069841861177,6.739167398612966e-05,8.583865662965798e-06,5.880780832316386e-05
459.11823651113986,0.011151049223640184,0.0062888779109042305,0.004862171312735954
470.1186146803674,0.0022040501234826776,0.0003555008250737514,0.0018485492984089262
516.8164413255129,0.0027143886081782416,0.000879578508912591,0.0018348100992656507
528.1173170714263,0.002477228843815335,0.0013181456437350843,0.0011590832000802507
564.4307908664555,0.004654522361754142,1.1914321926021491e-05,0.00464260803982812
656.9613290217786,0.03820276093200685,0.0013472327219856823,0.036855528210021166
659.7912981467277,0.03885378163843165,0.02325426255465702,0.015599519083774632
728.9042612862136,0.0001755375738281474,9.428025565405405e-07,0.00017459477127160686
733.7821339300639,3.7124367072135896e-06,5.544232893927571e-07,3.1580134178208325e-06
739.0948604316989,0.0066327875627700235,0.00016333240774487354,0.00646945515502515
751.1225527560509,0.0003290853871941039,5.133082540524577e-07,0.00032857207894005145
785.9676016192307,0.0003151804563926988,0.00021226676913938295,0.00010291368725331583
791.9689465072556,0.02548880472463231,0.017820308137738813,0.007668496586893496
823.9192025525571,0.0033225460762157776,3.1438132829774516e-05,0.003291107943386003
840.9486897193646,0.0008096318511161929,5.423297786975725e-09,0.000809626427818406
858.6618500942452,0.0034797409793617283,0.0027536532649496187,0.0007260877144121098
877.774726392266,0.23500587505883297,0.2065991240113543,0.028406751047478654
907.8707181027554,0.0010990618379776388,0.00037405025215805443,0.0007250115858195843
908.3994539572977,0.030669352895665802,0.018786920351098264,0.011882432544567539
953.1226134568728,0.0016335557141773796,0.0004149497559822263,0.0012186059581951532
977.4552084183732,0.00010399655959943035,5.7628901134204194e-05,4.636765846522616e-05
979.927829537195,9.944444598583781e-05,2.643655848695072e-06,9.680079013714273e-05
1015.9953541644995,0.010688554328099148,0.008371331052373119,0.002317223275726029
1033.380269480596,0.0012555923399265598,2.490276000693223e-05,0.0012306895799196276
1035.0408264683238,0.0018288058855552008,0.00039931671177469456,0.0014294891737805062
1042.8376754128537,0.00010324248138732079,8.030834181823517e-06,9.521164720549728e-05
1055.6095865163195,0.0031234130268702025,0.001462906051343598,0.0016605069755266043
1081.542343526079,0.028415375770793408,0.0156505013197984,0.012764874450995008
1088.1022567049401,0.009460430720899395,5.9606193700236804e-05,0.009400824527199158
1090.0731620977633,0.06317900745538511,2.916588328447546e-07,0.06317871579655226
1097.3236550465806,0.007752374061509379,0.0001056732272009802,0.0076467008343083995
1104.9680233812828,0.007607490813154877,0.006775388800782187,0.0008321020123726901
1111.4082779327714,0.022212822338367008,0.008117086538009207,0.0140957358003578
1145.530509615968,0.0006721016798246515,0.0003898008842361476,0.0002823007955885038
1157.8435702955996,0.19229657088951801,0.11505033861644869,0.07724623227306934
1189.2335704023697,0.003555778821259704,4.69011958124903e-07,0.003555309809301579
1201.4505724378882,0.031959184231723836,0.020178235289131246,0.011780948942592594
1215.4091709580466,0.005474446668568457,3.057324944992318e-06,0.005471389343623464
1235.9926906926282,0.0009042470999447748,0.00019652681049961353,0.0007077202894451613
1252.1911100386083,0.0029384924404639765,3.990284500128145e-07,0.002938093412013964
1273.240245606209,0.014923181747153222,0.006156686485404094,0.008766495261749127
1278.7906673499028,0.005409401780410784,0.003200913719838011,0.002208488060572773
1288.2398622950684,0.00048697449189744616,6.4902843379476035e-06,0.00048048420755949855
1294.113249696458,0.04748626840282261,0.031134424916599335,0.016351843486223275
1315.5332767479879,0.019754533052390468,4.8329538045262984e-05,0.019706203514345204
1319.1538447797443,0.013696478290932524,0.010614329974854925,0.0030821483160775993
1324.1961283867515,0.0684588424419082,2.3287095412275457e-06,0.06845651373236697
1328.0933337103738,0.1441378226266756,0.12107328089108595,0.02306454173558965
1329.6605099067065,0.04196407850962809,4.492087192503159e-09,0.041964074017540896
1335.8494905084228,0.00010173817628401299,1.7336826573290546e-06,0.00010000449362668393
1338.6492376514568,0.00012808027051399625,3.1926920022092804e-07,0.0001277610013137753
1356.218662573659,0.061668957735638276,0.039249098019625436,0.02241985971601284
1361.9614615969035,0.0025218111970541504,0.001751177504145173,0.0007706336929089775
1395.3046342063892,0.004318585078533404,0.0003844975359379984,0.003934087542595406
1412.2957371915,0.0013830852940312974,0.0009776835577746962,0.00040540173625660115
1416.2646937414297,0.0010354030032987606,3.95332456257479e-06,0.0010314496787361858
1421.7026588072004,0.008527999257302544,1.198567736458601e-06,0.008526800689566084
1436.8091802449767,0.007019000628338597,0.002649603968524944,0.004369396659813654
1480.8062575149977,0.0033449099783642903,0.0022177836369752283,0.001127126341389062
1481.543569156269,0.0037605916637547415,0.0003305796153851158,0.0034300120483696257
1484.239365197288,0.14712751893153214,0.012036478231553958,0.13509104069997818
1486.6168289944937,0.0019917658614439816,0.0006699629182508908,0.001321802943193091
1490.3541707907236,0.005792932330108986,0.003724152064087207,0.0020687802660217794
1491.7537429774516,0.036235971894413216,0.0028619994838205045,0.033373972410592714
1493.7796113974769,0.026786716891524544,1.1524019161183044e-07,0.026786601651332932
1497.2398088779962,0.003930641404017129,0.0014257897856016929,0.0025048516184154367
1502.2092273972264,0.010736901202686357,0.00034994316977272075,0.010386958032913637
1505.9587617356613,0.002253237466765814,0.0002301526052323032,0.002023084861533511
1516.5649475552868,0.012325520596519703,0.0008638098540856425,0.01146171074243406
1563.1207333876207,0.0025925016030769496,0.00021991757131200498,0.0023725840317649445
1654.521808929196,0.02541349244282768,0.011205217860077624,0.014208274582750058
1666.8979596733968,0.022420209859049387,0.0027551667325066433,0.019665043126542745
1703.3371020089921,0.47660709909311805,0.1351338186960773,0.3414732803970407
3007.901480952077,0.35862534982448874,0.3463976382156086,0.012227711608880169
3023.0497847674806,0.24403639633547722,0.22343046070331068,0.020605935632166523
3024.176499163686,0.13793743855192084,0.13338580447702378,0.004551634074897059
3026.624237736997,2.29840860527035,2.2637925110034076,0.034616094266942544
3029.7700165576243,0.00832473532171633,0.0017988764754676353,0.006525858846248695
3037.1684235997764,0.3004895980850529,0.28309770696995706,0.01739189111509584
3041.4534392509718,0.3068992810425906,0.2798527787638907,0.027046502278699928
3045.173659845168,0.8786833666966727,4.063726140034425e-05,0.8786427294352723
3048.3004267771535,0.24187342569663856,9.475927368484548e-05,0.2417786664229537
3049.9544167791687,0.104423908734193,0.0042599119233341365,0.10016399681085886
3049.9850717200684,0.9149733970230988,0.907494371618506,0.007479025404592796
3057.3727582098977,0.18077001661372993,1.882620823754056e-05,0.1807511904054924
3061.8211698732425,0.353086226026341,0.34324436343594417,0.009841862590396823
3068.703398713103,0.02706366901032166,3.1041170413114546e-08,0.027063637969151247
3079.3012034197336,0.09278880168793484,8.664347121182377e-09,0.09278879302358772
3088.206717070248,0.0069815284607814086,9.239848354776847e-06,0.006972288612426632
3108.8242295768223,0.05413262562163837,2.0612819167052584e-06,0.05413056433972167
3112.965303039746,0.12687271815630904,1.6069252167971603e-06,0.12687111123109224
3121.18356720792,0.4089066928925564,0.06233845649478017,0.34656823639777623
3187.5808821054825,0.3813971510594305,0.08118947817591733,0.3002076728835132
3188.903339530322,0.388200644290105,0.19868056464756292,0.18952007964254206
3217.268187472847,0.5989436614131319,0.42308713328720704,0.17585652812592487
3230.533171073665,0.5567244809914451,0.3984124492260426,0.1583120317654025
3588.9643489669074,0.9916980577704564,0.7782742502421908,0.21342380752826556
3679.4924687275075,0.30840286993069027,0.00048044992308169884,0.30792242000760855
