frequency_cm1,total_intensity,isotropic_intensity,anisotropic_intensity
1.9174474985937742,0.0,0.0,0.0
0.9891207783285674,0.0,0.0,0.0
1.3240812883349524e-05,0.0,0.0,0.0
1.3809595342225872e-05,0.0,0.0,0.0
2.9668385422967408e-05,0.0,0.0,0.0
0.8547455085911423,0.0,0.0,0.0
13.897686002555222,0.005792504992379773,6.224150460694928e-06,0.005786280841919078
17.960866816104772,0.00907283895387642,0.00020898553158444296,0.008863853422291977
22.744883006551404,0.001496343627315992,0.00018529970817369494,0.001311043919142297
38.4120316588961,0.002084861812527669,0.0001282074719736017,0.0019566543405540675
41.961127388961884,0.004341163248393929,0.000901911809105623,0.0034392514392883058
55.729011036626225,0.0057261394030534915,6.376968297899462e-06,0.005719762434755592
69.50687803632407,0.003732043267758181,0.0009823964990681672,0.0027496467686900137
89.94482587584594,0.0035115884158590815,4.1111096104788204e-05,0.0034704773197542934
103.91590322058458,0.000738161753354558,0.00010772958990827598,0.000630432163446282
133.0595718099094,0.0032477777033059186,3.498064507551244e-05,0.003212797058230406
137.403917769644,0.0020414212681220175,0.0006419348840878455,0.001399486384034172
143.95656675224922,0.0009448608426851946,0.00019244075904724305,0.0007524200836379516
168.85804448553046,0.004584056167558023,0.00045905048571555086,0.004125005681842472
193.45208056191748,0.0007920334658240008,0.00024804687362548427,0.0005439865921985166
227.64581378697082,0.0036348002807861522,0.0005468165534112785,0.0030879837273748737
232.4193015202813,0.001235627809299815,7.267197919625519e-05,0.00116295583010356
255.25953640171295,0.010976603561029686,0.005730508250093956,0.0052460953109357295
298.68988685626,0.003151593513033091,0.0014896642591139262,0.0016619292539191647
312.1067152035567,0.0010630973571087252,0.00018277232937753912,0.000880325027731186
335.8911787722896,0.007495377254536884,0.006292709820178428,0.001202667434358456
370.71776747486996,0.020639655971386933,0.015327766598025417,0.005311889373361515
384.64577315882417,0.00260244844951457,0.00027033553603869555,0.0023321129134758743
391.3305150526568,0.0038155209423734672,4.887681068093959e-05,0.0037666441316925275
406.64423306586286,0.0035847395716664286,0.0001016486920775762,0.0034830908795888526
464.50280269505896,0.006588507904644856,0.0007350644815196177,0.005853443423125238
486.1511914719936,0.004493385611191399,0.00022122432645381012,0.0042721612847375886
513.7341578189195,0.0030810567601196126,1.867276195378113e-05,0.0030623839981658314
528.0474065094636,0.01693137254933974,0.006549515921948664,0.010381856627391078
541.7461904022322,0.01425297390747499,0.00957811596386417,0.00467485794361082
598.968148743219,0.0035776894191736413,0.0018184810376554094,0.0017592083815182319
636.0583517685266,0.007752549475432352,0.0014516376999915688,0.006300911775440784
758.5082451523192,0.013573904290883149,0.011542720716791962,0.0020311835740911876
772.0722405326267,0.013480052175218549,0.010043917073822536,0.003436135101396013
816.5190169678277,0.016622279044537842,0.014220867282665032,0.0024014117618728122
824.9662382602282,0.048687782505368225,0.041340391835612,0.007347390669756226
856.1955437493015,0.060840867515702425,0.052288680218047556,0.008552187297654867
870.9911156238838,0.01130101891461335,0.005319623351904794,0.0059813955627085556
893.7004647725067,0.0031310283782859495,0.00011147550080982284,0.003019552877476127
897.0611796394357,0.011955828663192307,8.816910422274987e-05,0.011867659558969557
964.5615944408594,0.005247303379134165,8.628929047353466e-05,0.00516101408866063
974.4036252441264,0.008094320824503058,0.003817138287480649,0.004277182537022408
989.3937468569916,0.009185053752507298,0.00029410579581248494,0.008890947956694813
1005.7350693204256,0.029144947770781183,0.017139764725874,0.012005183044907181
1010.0408516865582,0.0033627023026730797,0.0009689358984119757,0.002393766404261104
1014.6377149678445,0.03345245790458117,0.001323743485483016,0.032128714419098155
1025.1918909598585,0.0026233256302091498,4.422418007149552e-05,0.0025791014501376545
1033.9646096921174,0.15230235267783568,0.10755348326131589,0.044748869416519794
1042.5561082950624,0.02064771205900199,0.005707691547512718,0.01494002051148927
1061.18831804875,0.02280068735370687,0.005049351239634032,0.017751336114072837
1068.647676478399,0.04469086033557496,0.00025245047127666904,0.04443840986429829
1073.188982834056,0.02860755994237657,0.019805377880638096,0.008802182061738476
1105.6499090947402,0.008199126571476239,0.0034072479439587007,0.004791878627517539
1107.6644719075516,0.017307161764134764,0.007924345952494359,0.009382815811640405
1134.971414472368,0.021058056997438963,0.008473138459977572,0.012584918537461394
1140.6724844901976,0.05829655885513499,0.0011558324898483514,0.05714072636528664
1176.9842359018066,0.02826459561773887,0.006728874567963326,0.021535721049775546
1181.1154697250615,0.025772390139220763,0.0020859658937100504,0.023686424245510714
1220.9057776914005,0.07089907193467038,0.014425741231530783,0.0564733307031396
1250.835722706903,0.02733926405524143,0.019325067946764043,0.008014196108477388
1258.7696273738861,0.009214741469504916,0.0042527779407289,0.004961963528776015
1287.3894897277517,0.016201127344583073,6.944710950017348e-05,0.0161316802350829
1292.2474571516132,0.003561955003476197,0.0001117555184850257,0.0034501994849911715
1310.7127529730217,0.056387677270298975,0.006896707347607907,0.049490969922691065
1312.3871846291295,0.06634287741021337,0.010352510796973533,0.05599036661323984
1357.9975481252884,0.0047883662367777455,6.348736807970451e-06,0.004782017499969775
1365.57276576384,0.0368015396766371,0.0003925255477553602,0.03640901412888174
1368.378830442678,0.27889548477092063,0.12594749379730716,0.15294799097361345
1380.0387380815325,0.08126736624083486,0.03582492395908069,0.04544244228175417
1384.4119128225695,0.02688896030100419,0.0008332582904994545,0.026055702010504736
1413.6392019554592,0.02358770803953821,0.0072766765705117205,0.016311031469026488
1418.4200282245251,0.026157978740894844,0.006878115299271354,0.01927986344162349
1422.0819246969313,0.03643403200482623,0.006861067327030977,0.02957296467779525
1423.040634362756,0.05320528857384514,0.012387477173689999,0.04081781140015514
1430.4078179649025,0.010300747288066594,0.004916456875775597,0.005384290412290998
1473.4586056274625,0.02398298056261647,0.0003616488711631258,0.02362133169145334
1474.2805960623455,0.05621804952477219,0.005518044972332628,0.05070000455243956
1476.4793319912692,0.07833108156314021,0.00023830038336720839,0.078092781179773
1481.2422445047378,0.01772092893856286,0.0027102528292199833,0.015010676109342876
1482.913761528202,0.029327258450633123,0.007460059154853266,0.021867199295779856
1486.7034105591335,0.07915246355127527,0.006009669170712692,0.07314279438056258
1491.215821574938,0.0034880058481595168,0.0005672969725248963,0.0029207088756346205
1492.1859562345176,0.016964985396092487,0.007556071169893434,0.009408914226199052
1494.2539176871155,0.06535458382314778,0.008100163298872167,0.05725442052427561
1496.9831254909657,0.07834543931080976,0.023854485415119676,0.05449095389569007
1510.931524009347,0.019187018589924828,0.004424806783479922,0.014762211806444906
1512.5733729163483,0.0787611213168225,0.015050859266275605,0.0637102620505469
1727.5913351387196,0.7416621089742412,0.44374175073130057,0.29792035824294066
1765.259313484389,0.5431818523530573,0.3142420236121311,0.2289398287409262
1771.2042909386912,0.20429026734981898,0.12941864740584802,0.07487161994397096
1786.8921717165217,0.93251233440298,0.36861703776264304,0.563895296640337
2944.3183361452993,0.3387043695093229,0.21908556915227995,0.11961880035704298
3036.8733008834006,0.4506917923056529,0.3341269204028173,0.11656487190283565
3042.0032785739736,0.5508718694518451,0.4321381035261103,0.11873376592573473
3047.9447954783795,1.8349358626019598,1.6658274659811887,0.1691083966207712
3050.3238565475613,0.49397572119778327,0.38839874428837246,0.10557697690941083
3054.2572748091375,0.8537453096094246,0.7950053774169008,0.05873993219252387
3064.6760902727924,0.44784197224305833,0.3500887012809779,0.09775327096208039
3066.743160426859,0.7106080305897899,0.6304367913076002,0.08017123928218968
3072.2462088284447,0.7741616335633424,0.6705137042957181,0.1036479292676243
3086.6543858166924,0.255326766083725,0.08140950949073268,0.17391725659299234
3089.579498398498,0.18304118953672616,2.068158591314608e-06,0.18303912137813483
3092.4412380237586,0.6066639204279931,0.0016268187920676605,0.6050371016359255
3098.824285041353,0.2282762937641822,0.00033418924965980626,0.2279421045145224
3100.8993421476644,0.23325691242227217,0.003966512384401388,0.2292904000378708
3111.645624011875,0.09900147357741636,0.04637755856605371,0.05262391501136265
3116.771631918677,0.3590103314434651,0.014280535783640165,0.3447297956598249
3122.6181776177573,0.0345077076937743,0.02279947016942184,0.011708237524352462
3135.5169195255476,0.1526568045975041,0.0113100818039781,0.141346722793526
3146.0651140886616,0.45053961761151784,0.19199036336312134,0.25854925424839653
3149.0191135056502,0.5467241615740452,0.34432077904300445,0.20240338253104073
3156.6897191066155,0.41933035599337165,0.046831834542310165,0.3724985214510615
3157.254919289767,0.026937283123783257,0.001670326678006206,0.02526695644577705
3183.606388058097,0.29788114018050343,0.07472654583642184,0.2231545943440816
3188.7847811950296,0.18010481282532875,0.08725658986613438,0.09284822295919437
