frequency_cm1,total_intensity,isotropic_intensity,anisotropic_intensity
1.5038776328772125,0.0,0.0,0.0
2.9664194083815753e-05,0.0,0.0,0.0
2.0627981028098567e-05,0.0,0.0,0.0
1.3119816274889117e-05,0.0,0.0,0.0
0.4596173888151996,0.0,0.0,0.0
1.3319987388921375,0.0,0.0,0.0
4.760244397694377,0.0,0.0,0.0
7.148094392073078,0.0017914290238623422,1.617610763773393e-07,0.001791267262785965
17.2314028006406,0.0028547264127065115,4.040374722148749e-05,0.002814322665485024
40.32861150253711,0.00048082184938032924,8.454751043734224e-07,0.00047997637427595584
63.055588665357774,0.0010026704764538878,6.760492680635184e-05,0.0009350655496475359
73.50327925794348,0.008362103760538699,5.172630989909028e-08,0.0083620520342288
88.9660904242766,0.0013151789585050706,0.0006330008698114714,0.0006821780886935993
96.19493329903644,0.001421545404420104,0.0006713904139735938,0.00075015499044651
114.00250691699544,0.0002367744900896184,3.2309366122143614e-05,0.00020446512396747477
118.30778873089389,1.953907677058963e-05,3.643319649005521e-06,1.5895757121584112e-05
131.5077010543915,0.006638377700103776,0.000581948076216235,0.006056429623887541
213.01176832483617,0.0013818648608563517,1.0999015679189105e-05,0.0013708658451771626
225.98682486278153,0.00044372267762474914,0.00037393948788395665,6.97831897407925e-05
242.57775886818197,0.0006841882410410817,0.0003104422201490717,0.00037374602089201007
243.96554422415034,0.0006481269075877601,0.00010827564838034319,0.000539851259207417
265.5006627629686,0.005025446080472054,0.004175470753338167,0.0008499753271338868
300.8671674376793,0.002401768445303858,0.0009064890468053864,0.0014952793984984716
312.81458032995965,0.022006693160263747,0.0005087355253287261,0.021497957634935023
366.2764034801744,0.012244728193277118,0.0007373588798888952,0.011507369313388223
381.2187959018728,0.0035974604423772605,0.00019618025508259294,0.0034012801872946676
386.92526371474474,0.021513897217914732,0.0089455349632593,0.01256836225465543
483.1014368047163,0.034969006635113306,0.0003536929632896987,0.034615313671823605
501.4154189573005,0.011388630538903197,0.00010567460029970513,0.01128295593860349
523.609965964683,0.04279831676844808,0.00017256233763697737,0.042625754430811104
548.8114061713457,0.012911719221406538,0.0024493818174062248,0.010462337404000313
734.0476377730556,0.002038671334503931,3.095915837454785e-05,0.0020077121761293833
734.2471735555266,0.0015438174609469061,4.263137971368494e-06,0.0015395543229755376
763.3563584285465,0.00030856529051488814,6.888537406877883e-06,0.00030167675310801027
777.0219535309141,0.001642628674442206,1.2624631769523156e-07,0.0016425024281245108
792.5864993624651,0.0006642390459027617,4.62138040155866e-06,0.000659617665501203
792.9234482331346,0.0004872348075954979,6.785800143449384e-07,0.000486556227581153
840.6172028461357,0.014615347364246897,0.002753263415795285,0.011862083948451611
916.1401074582533,0.03842835946376542,0.0003016091931021124,0.038126750270663305
916.4839945079424,0.1057633723887531,0.08339759088817433,0.022365781500578757
935.5539667410229,0.0026789531973927983,3.810692692731582e-05,0.0026408462704654826
935.6731157636757,0.00279701224036718,0.00010415967419378719,0.002692852566173393
1027.7201995356277,0.05079078237188908,0.024491042044286242,0.026299740327602836
1030.9874079298854,0.007049521614495127,1.4706651507476236e-06,0.007048050949344379
1035.3259341322282,0.0028434088842446393,3.5928471087291205e-05,0.002807480413157348
1040.2480590500197,0.12969541972782994,0.05133999961246671,0.07835542011536323
1080.5014513069384,0.022890149182440613,8.179874008706679e-05,0.022808350442353548
1080.59717385393,0.05465380017539599,0.020102210032626217,0.034551590142769775
1131.768720698713,0.08900638046967574,0.0528355345067389,0.03617084596293684
1131.8426239305634,0.07770523614123177,0.04439217621441482,0.033313059926816956
1133.3006839504897,0.0017547231617034103,0.00018346645388631717,0.0015712567078170932
1133.5500054048841,0.001679533925997337,1.8379205886365566e-06,0.0016776960054087004
1164.2562803002259,0.0058445188195352,0.0003551179424545295,0.00548940087708067
1165.5428770206656,0.0004216378218831153,5.152989874683725e-06,0.0004164848320084316
1204.8165715053392,0.00022396733438078645,0.00016379428737930922,6.017304700147725e-05
1241.701261673659,0.0014422673232684566,1.280895858593118e-05,0.0014294583646825255
1241.7443705939154,0.0018392006724269106,5.05918520060382e-06,0.001834141487226307
1277.4707251099846,0.006246634944804981,0.0007637532796415835,0.005482881665163398
1277.487913252979,0.007180675908402119,0.001179016451448481,0.0060016594569536385
1291.8979077348606,0.0003186864633491841,2.1206077208767737e-05,0.0002974803861404164
1314.6486809425796,0.0003314421288143595,2.145454551846246e-06,0.00032929667426251325
1314.702011291741,0.000574235740215651,2.5762102774418806e-05,0.0005484736374412322
1320.2604844711248,0.01148503978153627,1.6706292426463352e-08,0.011485023075243845
1332.0909012271175,0.03508409732136382,1.3993255788300194e-06,0.03508269799578499
1332.1722514196645,0.03342796354465582,1.2714964642450199e-05,0.033415248580013365
1363.3309570262873,0.19816968721666173,0.05788211983292364,0.1402875673837381
1364.3934401630959,0.019206891873895984,0.0004168868632326631,0.01879000501066332
1391.278937551449,0.4379537408280011,0.13810084436525727,0.2998528964627438
1408.0538605306863,0.030778872105973003,0.0003835447595586684,0.030395327346414334
1408.4121833453391,0.03326594765458567,0.022587205136941742,0.010678742517643926
1413.022431851471,0.002872720583915356,0.0019394017868597296,0.0009333187970556263
1413.0302546230796,0.0017111615827429484,0.0010609596925340032,0.0006502018902089452
1476.7296923315548,0.06496481556655086,0.0004937444333114223,0.06447107113323944
1477.8209988917226,0.055066052131156604,0.0025512894430641084,0.05251476268809249
1478.1054137470849,0.048001080994785915,0.005489392029069552,0.04251168896571636
1485.6417055673571,0.0712074435425889,0.006836335153909906,0.06437110838867899
1485.6888950745356,0.07032628900633207,0.008410631764362578,0.0619156572419695
1489.1631835981727,0.00020802329868435692,7.144162514407783e-07,0.00020730888243291614
1493.3194507636454,0.010900298005555753,0.004598272134312936,0.006302025871242817
1493.3644761110563,0.009878954002208427,0.004001933109449285,0.005877020892759143
1493.6603443113072,0.026832782725592936,3.809048091484293e-05,0.026794692244678092
1493.7142138605006,0.026847430865253825,5.2050014485075755e-06,0.026842225863805316
1504.751555065276,0.006611025888430888,0.0009573822924087558,0.0056536435960221326
1504.7733820760388,0.005814792475640219,0.0007982163190215622,0.005016576156618656
2384.960328133969,5.976329393296849,3.3965844482515695,2.5797449450452796
2386.929158648547,0.04914175630669893,0.0011507447371271232,0.047991011569571806
3035.577709844952,0.6496808020704911,0.5738042620740882,0.07587653999640287
3035.681270426097,0.6559408462184892,0.5805833568415406,0.0753574893769487
3049.4671812082615,0.10306391741844703,0.011530075521773112,0.09153384189667392
3049.497384253953,0.04842913219646628,0.041498530064650145,0.0069306021318161345
3051.792174066396,0.7843284521238806,0.749936912941922,0.03439153918195857
3051.8633504633844,3.006642716833565,2.9534736831991517,0.053169033634413665
3060.493440238059,0.06756532514101753,0.0005131742785679982,0.06705215086244953
3060.6104898824183,0.06680220383439961,0.0010032143065095672,0.06579898952789004
3064.1158602373594,0.5797668374437891,0.00020048361354394975,0.5795663538302451
3064.1478206959887,0.5823139062960321,2.754704052875188e-05,0.5822863592555033
3070.1184930607874,1.6349798419384591,1.415977955122552,0.21900188681590718
3079.5752180619697,0.0036111673435596588,1.5345834305746325e-05,0.0035958215092539124
3081.3168910825807,0.1766783647692114,5.96508028395378e-05,0.17661871396637185
3081.3924082734907,0.17045838183624654,1.009334599503785e-05,0.1704482884902515
3099.8799904030593,0.4649520251752262,8.996837173478307e-08,0.46495193520685446
3103.8644386092346,0.062142600728782485,0.00012712589682109307,0.06201547483196139
3103.93000717113,0.060525287587789155,0.00020579434558287317,0.060319493242206285
3116.218220413944,0.1281604503347745,0.00013610507939288642,0.12802434525538162
3116.337574428939,0.12480313727983045,2.8653008053863998e-05,0.12477448427177658
3121.097344977511,0.00418324130169778,0.0013796034630483031,0.002803637838649477
3123.661510506486,0.4277394281247384,0.0643917521001791,0.3633476760245593
3123.7831152615545,0.4270768518255267,0.0638952075585366,0.36318164426699007
