frequency_cm1,total_intensity,isotropic_intensity,anisotropic_intensity
0.8756123592200274,0.0,0.0,0.0
0.6907297273668263,0.0,0.0,0.0
2.8123379300329343e-05,0.0,0.0,0.0
2.5335422798498645e-05,0.0,0.0,0.0
1.548004349184334e-05,0.0,0.0,0.0
1.4610713418809653,0.0,0.0,0.0
26.331347286764768,0.0038841360380220966,0.00021899123482041602,0.0036651448032016805
32.39117332470176,0.002948402029988891,2.334645109398663e-05,0.0029250555788949044
33.28185340296283,0.009527325682343522,0.0012392125936329856,0.008288113088710535
43.07722040960474,0.0031391602860017746,0.0001996214092876843,0.0029395388767140904
53.73259781574394,0.0170164175734562,0.00041777449083016784,0.016598643082626034
66.7422658635817,0.0026575150765786922,5.688539483293694e-05,0.0026006296817457555
72.50840417717366,0.0026309780125586364,0.0005140799150402853,0.0021168980975183513
93.67837100786964,0.010493923243662027,0.00048165485977137614,0.010012268383890651
100.0418619151311,0.003288286412019012,0.0007058529448314839,0.002582433467187528
110.86439481693412,0.003152219732186982,7.226005430176197e-05,0.00307995967788522
113.82535806355394,0.004230365300815211,7.40604373589234e-05,0.004156304863456288
127.2494587756722,0.005112661970894755,0.00013625328930339518,0.0049764086815913605
142.53938977296937,0.007328137356314811,0.0026005098396660706,0.004727627516648741
184.556504869209,0.01218273344746156,0.0005372628127948024,0.011645470634666758
198.8782439354519,0.00703549591495996,0.0007590963862068214,0.006276399528753139
235.95874504385662,0.007138685380938033,0.005995854652387216,0.0011428307285508167
243.24342387733725,0.006336111267145157,0.0033674379474194055,0.0029686733197257517
244.76846643093958,0.001100070698454521,0.00037770478223608843,0.0007223659162184326
250.43798948584535,0.0009910278728986893,9.066355816981658e-05,0.0009003643147288728
258.5303948769812,0.004154885704871509,0.0020425321768686605,0.002112353528002849
270.18369015664086,0.009292017209860396,0.002464539265294873,0.006827477944565522
285.24956535769576,0.02873557393569945,0.016481052299104015,0.012254521636595432
305.02520121837665,0.008652808885017488,0.007910383237632362,0.0007424256473851267
327.323807212527,0.0018544147545334737,1.612814224649405e-05,0.0018382866122869795
348.93163784589916,0.0035181071317890956,0.001965051298368516,0.0015530558334205795
411.40248833303644,0.005514212253733381,0.002752510660899583,0.0027617015928337978
414.0129320229182,0.006842468144108641,0.004628362764517879,0.0022141053795907612
419.76386974625433,0.010297996753603595,0.006654920841913918,0.0036430759116896764
443.05623907244706,0.0028798859579836655,3.65537215056777e-06,0.0028762305858330978
481.11657977530143,0.023967273165860652,0.015781097668693914,0.008186175497166739
500.11013558938924,0.011377453425368288,0.003917806482770633,0.0074596469425976565
542.7862071759669,0.01144551701072933,0.005931809924350577,0.005513707086378752
592.593996279693,0.011058960331900278,0.0050403464332063564,0.006018613898693922
621.0974979788431,0.016245328609089258,0.002286602885753824,0.013958725723335435
632.0602271540969,0.02348784171640276,0.00018292755790113639,0.02330491415850162
643.6776368010899,0.02395897636230001,0.008858251448750371,0.015100724913549636
702.0905334818639,0.015802998473939463,0.013472429367640714,0.002330569106298748
707.4381871892946,0.004704320079988951,0.0030962363369614015,0.001608083743027549
719.6697788446478,0.009136293498931063,0.006196871984638975,0.002939421514292089
759.8063495542427,0.012575830758300079,0.008413041339293104,0.004162789419006976
761.9802613899718,0.0554264335465663,0.04388095018245414,0.01154548336411217
765.0779705345507,0.03332755473159094,0.025110113124436322,0.00821744160715462
822.7527550840734,0.0026242330176485533,8.261719147336056e-05,0.0025416158261751926
827.9329313410127,0.005643529649256041,0.0027163119191898235,0.002927217730066217
829.1788239916306,0.011886728868924237,0.00118064403196497,0.010706084836959267
838.0262614786841,0.01042401913591803,0.004923827215083945,0.005500191920834085
841.3279080598031,0.002261427044456822,0.0002483771843689021,0.0020130498600879196
868.5093892723456,0.0006898825899586904,0.00026514853130130237,0.00042473405865738794
878.6752828942257,0.005348229377970276,0.0014077776210140423,0.003940451756956234
907.7710706796745,0.0177218582388719,0.0006798407404098171,0.017042017498462084
927.4321932547806,0.03556762722172166,0.020392375010301327,0.015175252211420335
946.2087142589401,0.003517276948263773,0.0006360083298985581,0.0028812686183652147
959.5144121054068,0.0031939092915150725,0.0005503382235221568,0.002643571067992916
970.5613318629622,0.001703379604156033,4.4309647349194735e-05,0.0016590699568068382
996.4054091956801,0.013276849258854567,0.009384195185522371,0.0038926540733321955
1015.2460193686903,0.000543833578094798,0.00012349170447815408,0.00042034187361664394
1029.369475878673,0.19329891395645493,0.166911981906184,0.026386932050270928
1032.9786384437687,0.0003175573108278706,1.6664520654008617e-05,0.000300892790173862
1062.30618091678,0.11813574164670398,0.10107248552090865,0.017063256125795324
1075.2458963376407,0.01846657915223074,0.00843059391890012,0.010035985233330621
1088.7220297053152,0.008438325709122686,5.871602584758478e-06,0.008432454106537927
1097.0628070470175,0.05764646028190998,0.023262920600386438,0.03438353968152354
1111.2610435925324,0.0005757291088827696,1.8843780327043777e-05,0.0005568853285557258
1141.7506469049383,0.10071839891510012,0.08017026471917509,0.020548134195925036
1143.3782027508653,0.0011659340967535954,5.102260041197514e-06,0.001160831836712398
1145.7659427454912,0.052609349593011674,0.032584258733090295,0.02002509085992138
1154.7111354851568,0.1391598946348126,0.0967632949477796,0.042396599687032986
1175.438206975224,0.033269276171140706,0.002790956119791616,0.030478320051349088
1176.666181200264,0.007463579164610752,0.001346845534501812,0.00611673363010894
1179.2353825552955,0.0025425974678749746,0.00011161363998719704,0.0024309838278877777
1180.9432521607941,0.0029510635751741833,2.8269720039147992e-05,0.002922793855135035
1202.3862874853364,0.011455737252172249,0.0006809962469035147,0.010774741005268734
1231.8278500190554,0.0083120679887826,0.0023616344345200792,0.005950433554262521
1244.2514635011357,0.04228938890012524,0.02181238015830323,0.02047700874182201
1277.9776028057543,0.025107892821080488,0.0028652098934057687,0.022242682927674718
1281.2581799683799,0.05133256793490359,0.00022144580893274985,0.05111112212597084
1295.7514145851312,0.03134335702985869,0.013007357969086638,0.01833599906077205
1299.9520052539515,0.03245434957631101,0.006870749849783833,0.025583599726527177
1309.9467002617516,0.011390893074509661,0.0010035981276792405,0.010387294946830421
1311.135636627537,0.024627866657302083,0.0001667725339689575,0.024461094123333124
1322.089289190991,0.008898163980960183,0.0003539826499319386,0.008544181331028244
1352.6216656274864,0.041927927345455,0.02329488016437692,0.018633047181078086
1364.662502485426,0.38833464962274955,0.2445813898685932,0.14375325975415634
1394.5335491281228,0.0013265978549329895,0.00017576783096907975,0.0011508300239639099
1398.886763826476,0.014985034440085924,0.005498589745517697,0.009486444694568226
1402.0766281527428,0.07541136925628288,0.05633083761475264,0.019080531641530233
1425.5347887028438,0.005039495362795616,0.00018229901461600355,0.004857196348179613
1430.9548241933753,0.03033163121673451,0.009409377264836316,0.020922253951898194
1434.6862056773064,0.08876247598709966,0.0734160019733507,0.015346474013748954
1475.1489460235728,0.00820729345351778,0.004082782998256701,0.004124510455261078
1480.0710682711524,0.04113433918757495,0.0004697295891978615,0.04066460959837709
1480.1983999441043,0.028261603448453673,4.443349414593729e-06,0.02825716009903908
1480.923349747004,0.02997387853106112,1.063174150400479e-06,0.02997281535691072
1493.8644752967646,0.009327530194189016,0.002541958085075109,0.006785572109113907
1496.5472769922796,0.03423213122396712,0.004142887072991208,0.030089244150975913
1497.1181545260558,0.043140504665129635,0.0035378840111354812,0.039602620653994156
1497.8144083680959,0.02543113382358592,0.0010531194358748537,0.024378014387711065
1513.9488664047701,0.029278821812492875,0.006024793570553114,0.02325402824193976
1515.511896320118,0.022317362923411233,0.0055215312994745455,0.016795831623936688
1519.8307989067819,0.004148781840399048,1.2110915253575344e-05,0.004136670925145473
1540.7406841607265,0.00781536707043949,2.6332932922876502e-05,0.007789034137516614
1563.573378039632,0.03264070018480585,0.029267636707488998,0.0033730634773168535
1654.028706312805,0.14178589756816212,0.06798078142604212,0.07380511614211999
1659.6100643084972,0.028973184810631034,0.008337307701428239,0.020635877109202796
1679.1356956190584,0.5222930621376002,0.19288212023971998,0.32941094189788017
1685.8737913161897,0.5960393565881484,0.025583239023163933,0.5704561175649845
1763.475783562834,0.43248430259349574,0.32368267569477116,0.10880162689872458
3027.4228364839455,0.019505520342829104,0.003183044990091505,0.0163224753527376
3028.2431851361102,0.8035944386021097,0.7724785962120053,0.031115842390104387
3032.871055895866,0.5101142419813549,0.4428066040787482,0.06730763790260663
3066.0551456653907,0.928903835449462,0.8843275497437848,0.04457628570567715
3067.7269010475397,0.21758175725302617,5.4720298714740936e-06,0.2175762852231547
3069.0781557630676,0.34865440015731125,0.1319059231703444,0.21674847698696684
3069.658090581174,0.7100248944061668,0.6123200358585155,0.09770485854765129
3070.3346750789547,1.0694133672123523,1.017614734638099,0.05179863257425313
3091.674099390779,0.22635666446968283,0.06618169162229204,0.1601749728473908
3138.028634126087,0.3449292112041418,0.005309498614760271,0.3396197125893815
3142.5177915436766,0.3114962064056078,0.006165814943283146,0.30533039146232466
3143.097488581963,0.3026219764401969,0.0072595841079975566,0.29536239233219935
3147.3352098140813,0.16199922892139695,4.455967031294681e-05,0.161954669251084
3150.610705497118,0.1836319562128723,2.177616374369145e-05,0.1836101800491286
3153.250595975839,0.13638587945816463,0.000794858596840107,0.13559102086132452
3192.7790992072128,0.16572365097646993,6.86384201262118e-05,0.1656550125563437
3202.587811037475,0.49095461827455017,0.0027555053005535184,0.48819911297399665
3210.9213692989056,0.21571584264893975,0.018055218288416778,0.19766062436052298
3218.244351361363,0.7061630715689329,0.5244009658760254,0.18176210569290752
3225.5505692661795,0.3556887769376706,0.21761042636665673,0.13807835057101386
3227.5352296845244,1.0777589632233893,0.8463034615484327,0.2314555016749565
3255.9189843589047,0.3083389316462195,0.20560963242904098,0.10272929921717852
