frequency_cm1,total_intensity,isotropic_intensity,anisotropic_intensity
1.084881204023461,0.0,0.0,0.0
0.6326049772744153,0.0,0.0,0.0
5.92907685129398e-06,0.0,0.0,0.0
1.9234429408917152e-05,0.0,0.0,0.0
2.3518131708143724e-05,0.0,0.0,0.0
1.611095880156855,0.0,0.0,0.0
24.456536417498633,0.0025408868919971385,0.0006578992102016897,0.001882987681795449
38.27401706750406,0.002937352102827201,2.672318206282557e-05,0.0029106289207643755
45.60642744702044,0.008002377281611912,0.0005780676546483634,0.007424309626963549
54.333247675251584,0.006322975156523252,3.936947753407341e-05,0.0062836056789891785
66.18573493356241,0.040303038266819,0.0020376326858038145,0.03826540558101518
72.60067889756981,0.03232984097010964,0.0026739119328673456,0.02965592903724229
76.49224829060313,0.01201889711287021,0.00018875356640874957,0.01183014354646146
108.13005938504985,0.010421979956718327,0.0034538926213302764,0.00696808733538805
126.54709027295753,0.005335264928005842,0.0005865884808418911,0.00474867644716395
151.13176878375697,0.007800441442228821,0.0006433943841300778,0.007157047058098743
181.5467366486499,0.027897765062278455,0.004293850429349833,0.023603914632928623
216.2232792351995,0.007524635447004426,0.005761537743267218,0.0017630977037372073
226.064238603324,0.005732683142415238,0.0014095791551673555,0.004323103987247882
241.4643267458788,0.017646101103200987,0.0016688654831168582,0.01597723562008413
270.8022349382365,0.0027783643432765168,0.0007527340933849204,0.002025630249891596
295.0009542880887,0.0032937526682975445,0.0022485382455189355,0.001045214422778609
326.06000715557286,0.0037908781324630515,6.0826207390238904e-05,0.0037300519250728125
357.7885221149565,0.010308027395247025,0.00834148567235143,0.001966541722895594
407.77754767978064,0.015194066300026041,0.010286971855972394,0.004907094444053648
416.8680585650164,0.022923861080759958,0.0058060189338506735,0.017117842146909285
421.4040471532188,0.013515246289324014,0.006092429659356482,0.007422816629967532
463.3552947912323,0.0056565912246639705,8.996597901824235e-06,0.005647594626762146
469.57214997542775,0.006334019116202643,0.00015946006596753408,0.006174559050235109
507.79872052091207,0.0031874738813531286,0.00225280968907685,0.0009346641922762788
523.7115244203335,0.024460952150962553,0.018604183333252557,0.005856768817709994
581.9040574952925,0.027460744478546156,0.00957970235126932,0.017881042127276838
623.5027744655268,0.004551346831740039,8.741071097221706e-05,0.004463936120767822
632.5701223925461,0.03586403239743502,0.0007356998401839752,0.03512833255725104
635.6972840594877,0.01594743234437083,4.399554849152281e-05,0.01590343679587931
678.8820443843484,0.00800823905036488,0.0022028734662970827,0.005805365584067797
705.93808447416,0.013166556254816095,0.006281466832317954,0.006885089422498142
718.61549212962,0.0025325868659685485,0.0010079297897876642,0.0015246570761808843
720.4802974451993,0.0005138349079208988,5.362752809629544e-05,0.00046020737982460343
765.0022099644341,0.02044145985866709,0.009176785745947491,0.011264674112719602
783.5568986150897,0.016972027470433877,0.004514486661787466,0.012457540808646412
795.3121634650014,0.019818679788963366,0.0033430084588777567,0.01647567133008561
811.7846306985779,0.014647463920754344,0.002843557427065304,0.01180390649368904
833.58544818983,0.007880474962106768,0.0006827596166335113,0.007197715345473256
873.1913962216541,0.0071333275691689395,0.0004263525053809237,0.006706975063788016
875.1558925755282,0.026668967671924997,0.012975889153613161,0.013693078518311837
880.0071277836191,0.027999232655474673,0.00806979474770732,0.019929437907767356
926.304337801217,0.0419822580353321,0.03738770709261372,0.004594550942718381
936.1840776765357,0.013110953142144716,0.0009019886819119379,0.012208964460232778
962.2476920458708,0.010450792911535618,0.008798104526265754,0.001652688385269864
966.6210488334773,0.005814549212983804,0.004675013058974941,0.001139536154008863
1013.0293164096007,0.004923854589016459,3.0414551036231663e-06,0.004920813133912836
1014.3132403378444,0.004081764283216728,0.0019872637737866675,0.0020945005094300598
1028.8233830624395,0.23504150669562296,0.2137979300412905,0.02124357665433245
1029.1210714689196,0.10787938871035722,0.07037401714047042,0.0375053715698868
1032.7801877247364,0.003526541392917149,0.002280220026276654,0.0012463213666404952
1033.8155630958286,0.00568336049949014,0.003296928291747679,0.0023864322077424617
1053.427933041795,0.10026770864562931,0.057902334674065574,0.042365373971563744
1065.4367569745427,0.16550195371440288,0.15663066015649446,0.008871293557908418
1067.0724922926613,0.05016131254520495,0.03882261756962531,0.011338694975579645
1115.5944923616555,0.003814657262194542,0.0013444713538041005,0.0024701859083904416
1118.2119710211628,0.0034310089350477677,0.0005940169855443764,0.0028369919495033914
1123.1810226951882,0.044588328370285105,0.03816590289054517,0.006422425479739934
1151.8944355692297,0.0570492209761731,0.041067275964919776,0.015981945011253326
1176.6836087445886,0.013874824593109361,6.333974378322617e-05,0.013811484849326134
1177.6194070338022,0.0496973165506817,0.0029103039170917675,0.04678701263358993
1203.67425084394,0.038742275765791576,0.03185684225930266,0.00688543350648892
1208.8602133990107,0.024748066651767472,0.01178341918630523,0.012964647465462244
1211.9326095306274,0.035099458207787794,0.020793918499109804,0.01430553970867799
1222.7432306772878,0.4034717746384473,0.34788239924317754,0.05558937539526973
1294.5955672391046,0.03204744401575575,0.027875042315148726,0.004172401700607026
1300.5463312439922,0.06592801816772158,0.0020810275621858747,0.0638469906055357
1313.9006604106842,0.038580185229943255,0.020617639226996835,0.01796254600294642
1333.9358604434262,0.02154787055598342,0.00022768302128845186,0.021320187534694966
1351.4767107318685,0.4067400487032593,0.004452418136651309,0.402287630566608
1360.1552957266995,0.034832054103793066,0.0036902081771349243,0.031141845926658144
1368.0439744462628,0.2867489632968079,0.0019174842257987323,0.28483147907100914
1401.045791820907,0.014209802970770801,0.0004357271224042638,0.013774075848366537
1426.463191438747,0.004467133533902712,0.0007505981586510744,0.003716535375251638
1482.764763575439,0.03709710870994139,0.0033417412717596964,0.033755367438181694
1490.8147310431095,0.04689154187874926,1.7435954863871347e-05,0.04687410592388539
1491.6224701562185,0.040436111988249146,0.02939283584087115,0.011043276147377995
1493.5384591345664,0.015411271090481765,3.3132157159325464e-05,0.01537813893332244
1505.9618448911374,0.0042129529552705,8.126393015969444e-05,0.004131689025110805
1541.9270241834195,0.00941599865551295,0.0019335638010698195,0.00748243485444313
1548.7410470478526,0.1289129712077521,0.00642783743907797,0.12248513376867415
1651.520456134651,0.6669495616304263,0.3708302343923775,0.2961193272380488
1656.4974585944403,0.03655010693677007,0.004716021852204077,0.03183408508456599
1679.8272580725582,0.27614335563226344,0.12534414831026838,0.1507992073219951
1681.1885042218057,0.8746157937919796,0.08825346591873359,0.786362327873246
1684.499150573889,3.0495432261099045,2.0015541652949556,1.047989060814949
1811.9991116478625,0.14234415926711966,0.09055991747864024,0.05178424178847941
2382.312869455803,1.5378086973796132,0.7088542887309068,0.8289544086487064
3070.432177320873,0.9887507829556088,0.8903864282676027,0.09836435468800603
3104.6675790239474,0.5785700682785264,0.4965373296026937,0.08203273867583274
3141.5348699628166,0.42309090169721264,0.0984077358159873,0.32468316588122537
3144.4798814812075,0.2999509684122488,0.0002763069857366806,0.2996746614265121
3166.5352246409416,0.15769602473413966,0.04836068582988353,0.10933533890425612
3193.05025810988,0.09565739654559045,0.007157319862852311,0.08850007668273814
3198.049865437175,0.14395336001327966,0.005101671013074236,0.13885168900020542
3199.358740204585,0.3319684746253346,0.004956190549234005,0.32701228407610056
3206.1867048041654,0.5330629511266475,0.0006151997835400939,0.5324477513431074
3207.9080144113177,0.4099359445156248,0.03051769212596036,0.3794182523896645
3213.9158314451784,0.25139143455038226,0.020458181431638193,0.23093325311874405
3215.7640839322844,0.18535012341318627,0.018229132949663707,0.16712099046352255
3220.8369300800045,0.07626732857615248,0.011680689055201811,0.06458663952095067
3224.974144449962,1.5112999892196772,1.166189334093461,0.34511065512621625
3227.3741810200063,1.6730180762881464,1.377562773355678,0.2954553029324686
