frequency_cm1,total_intensity,isotropic_intensity,anisotropic_intensity
2.423766974604937,0.0,0.0,0.0
0.8318893247368029,0.0,0.0,0.0
3.218690404954917e-05,0.0,0.0,0.0
1.4450238242513452e-05,0.0,0.0,0.0
4.450513081191949e-05,0.0,0.0,0.0
0.4916579076811444,0.0,0.0,0.0
16.876603204796993,0.002042168504216815,1.9693319003756146e-05,0.002022475185213059
27.901708922638967,0.0006034139016516804,8.675495656863197e-06,0.0005947384059948172
34.99845062424507,0.0019706681981258,1.6129309173453336e-05,0.0019545388889523467
42.73803628797554,0.0032020405699836694,8.62816541114215e-06,0.003193412404572527
46.85553329134294,0.0005396033582327821,6.657492929001929e-05,0.00047302842894276283
63.55466000501699,0.0011793683339080658,0.00011828692223492078,0.001061081411673145
89.43290777246347,0.0009660540699685188,1.6355868489641308e-06,0.0009644184831195547
99.08248381658744,0.00047349664460751245,0.00012821532302135084,0.00034528132158616163
119.31120381791337,0.002091495736830197,0.0006159252573418322,0.001475570479488365
138.38672429533233,0.00026645595922612883,0.00022409759591710806,4.235836330902074e-05
153.99293659563634,0.0008947157014126046,0.0006496061839736142,0.0002451095174389904
163.72661884686397,0.007452947588723228,0.005244522388021067,0.0022084252007021606
170.16493989582605,0.00010650654436831247,7.406116383613389e-05,3.244538053217859e-05
209.95991596032493,0.0020533171343029063,8.856864257136149e-05,0.001964748491731545
228.20539812514366,0.0065473431548212675,0.004970331630617347,0.0015770115242039204
246.173280147154,2.633112190082717e-05,2.1154160120760154e-06,2.4215705888751156e-05
276.8368813542452,0.0013147402953314453,0.0010556276122139655,0.0002591126831174799
305.5101770912745,0.0025472629459282604,0.0009236378078980803,0.0016236251380301802
334.71134087156054,0.002520364890345767,0.0001074141331111067,0.00241295075723466
366.06631081369727,0.000718919018049109,0.00018781147407732492,0.0005311075439717841
388.11154196535864,0.005653297699500626,0.003421775269600774,0.002231522429899852
419.81593895361726,0.0012212524286174858,7.978718700635857e-05,0.0011414652416111273
461.6625089079079,0.0030384544271237187,4.555321837166249e-06,0.0030338991052865525
469.4732242321595,0.0044183562057454,5.499702131671532e-06,0.004412856503613729
486.6808559572634,0.0025789128229110206,0.0007989478141364878,0.0017799650087745329
490.17947518998335,0.0020078715794002596,0.00017220452843830878,0.0018356670509619506
576.0376685932823,0.011319360387208953,0.008013810390286927,0.0033055499969220255
633.8352453835652,0.00610721345114245,0.002886411746563255,0.003220801704579195
715.8284547840577,0.04014781333140193,0.03399809782104479,0.006149715510357136
728.8313551999124,0.00015274425762371702,5.708146836094712e-05,9.56627892627699e-05
732.2524821597278,0.0006183081010033638,0.0004208661189660627,0.00019744198203730106
743.6316977944508,0.00044778363116559336,0.0002495857190081684,0.00019819791215742495
764.4920238950957,0.002523109708515653,0.0012919058728602785,0.0012312038356553745
785.5487518736177,0.006235332426474419,0.005055114755247729,0.0011802176712266894
832.9976550631817,0.005779101668581154,0.004683622575996404,0.00109547909258475
862.4455931082213,0.004918684050667877,1.8494922156074055e-05,0.004900189128511803
879.178074123942,0.044517494157205836,0.028966098406603205,0.015551395750602631
899.6570599311868,0.0012453207416789514,0.0007184598442589391,0.0005268608974200123
908.3990317925937,0.032608883217486846,0.01980474701527662,0.012804136202210227
940.923702603485,0.0013974899154742795,0.00016007321319185986,0.0012374167022824196
973.5465222277736,0.001357719432395763,0.0008651991442898669,0.000492520288105896
993.3127581776515,0.007906088960772878,0.00011242880086532493,0.007793660159907553
1019.3531685949284,0.0071850382409994916,0.0014922711984629463,0.005692767042536545
1024.0499677706737,0.0025286450499045553,0.0003533497854779815,0.002175295264426574
1036.1075722373648,0.003161360188535224,0.0021382256253816147,0.0010231345631536094
1042.116288205493,0.026284668065124472,0.005728822684926691,0.020555845380197783
1053.7278973403093,0.003721241144118707,0.0031064852658846745,0.0006147558782340325
1067.702417861587,0.010519422855235732,0.00017666913739908585,0.010342753717836646
1078.1142748021655,0.02408748881242899,0.0010897179501987275,0.022997770862230264
1087.516488646874,0.024824058286647428,0.014244059084301684,0.010579999202345744
1090.3649092822382,0.04034490729249634,1.0201411098079048e-05,0.04033470588139826
1092.0028073445003,0.0009980472993963174,6.261908561644611e-08,0.000997984680310701
1093.9855762060738,0.055183836069770856,0.025346106679183602,0.029837729390587257
1117.93093942419,0.01286812091211548,0.0031191547337776704,0.009748966178337811
1150.951799630643,0.15094721231777936,0.10031228096356941,0.05063493135420993
1155.7646986056109,0.020298341839099638,0.0036651277661606126,0.016633214072939027
1171.4823185803998,0.00398696102883852,7.78181172411144e-05,0.003909142911597405
1209.0727770092233,0.012896206500800554,3.639286169522569e-05,0.012859813639105329
1230.4281676212597,0.0031336571489140883,0.0014794738913915643,0.001654183257522524
1238.2645240717902,0.010415567324797223,9.660094457878105e-05,0.010318966380218442
1241.8312221127417,0.019257155777022115,0.0001384121956498381,0.019118743581372277
1257.7028663228425,0.008777237394439119,0.00203783459916632,0.006739402795272799
1266.069484221986,0.00557835051798726,0.00042840046640840257,0.005149950051578857
1273.2858959027192,0.00371721569504684,1.7595764175633474e-05,0.0036996199308712064
1291.6456691626138,0.009080227038215503,0.0007734317542456139,0.00830679528396989
1305.5437805677511,0.0012440050512061,0.00042943104221343026,0.0008145740089926697
1310.563820435893,0.010977515800240705,0.00016792237865128725,0.010809593421589419
1318.4862486499148,0.0006369979038817189,9.68883952427937e-09,0.0006369882150421946
1328.258033927846,0.09089705947325848,0.0001921247148517389,0.09070493475840674
1329.930029921301,0.005360285998057742,6.640557640491023e-06,0.005353645440417251
1334.1038858657903,0.03737538244882391,0.00017421265731835988,0.03720116979150555
1336.8446334923285,0.0009128859116885726,0.0001034868651848906,0.000809399046503682
1339.1081841863454,0.00363251619983701,4.4702843738937414e-05,0.0035878133560980725
1346.738537375998,0.0022850927795404746,0.0005576013908861302,0.0017274913886543442
1359.7301350058656,0.007367074485531054,0.001092521605984725,0.006274552879546329
1379.1813935348225,0.00096552100107617,4.079803885566175e-05,0.0009247229622205082
1393.0219638651392,0.0004578709487406278,1.997698054539362e-05,0.0004378939681952342
1400.4004111978868,0.0017920757381491386,0.0006094603335574439,0.0011826154045916947
1405.3638048947998,0.003122242457572943,0.00027397805908406097,0.002848264398488882
1412.5265779461713,0.0013412218560079569,0.0006883190041143769,0.0006529028518935801
1417.5413018143715,0.0009743070174095356,0.00026743291210844,0.0007068741053010957
1421.094571100599,0.00767121046496574,0.000129601474261555,0.0075416089907041845
1424.7426009141022,0.010957580731657968,0.009547335533037164,0.0014102451986208054
1469.4334141657748,0.042828733237933174,0.009868360453096576,0.0329603727848366
1480.4732618997193,0.019292749609899164,0.004598816471186286,0.014693933138712879
1481.1813497959886,0.005180396952957936,0.00046925910586166316,0.004711137847096273
1481.780973329549,0.005421730898637751,0.0006697117770414674,0.004752019121596283
1484.6382494603156,0.1593850619265294,0.009906814181628061,0.14947824774490134
1485.9366916922636,0.01989844118492259,0.0003744856276559659,0.019523955557266624
1486.7743916210593,0.005416939237824323,0.0018094915669670142,0.0036074476708573087
1491.0420633586486,0.044959024019257755,0.00408398873366809,0.04087503528558967
1493.8267307314024,0.02711599045088078,9.378744061064807e-07,0.027115052576474674
1496.021338935449,0.0057792831299250695,0.0037498902185403343,0.002029392911384735
1497.3219356954341,0.015208788180780858,0.008910523652596735,0.006298264528184123
1501.1665903083913,0.007953607747495922,0.00016259299776516384,0.007791014749730758
1502.331931432799,0.016829750186064366,1.5678899363229114e-08,0.016829734507165003
1505.7276770224655,0.004065971412260637,8.177980740580364e-06,0.004057793431520056
1512.8348161919214,0.012702064100746323,0.000188064312544381,0.012513999788201943
1740.503900295186,0.07181241085690343,0.04155283271265771,0.03025957814424573
3005.740681489384,0.4126525678820296,0.3085184443231745,0.1041341235588551
3016.8424369698478,0.8856630411437969,0.6809807327197556,0.2046823084240414
3022.7293559467466,0.08342013339618098,0.07204274909649966,0.011377384299681326
3024.0791691511777,0.3963346244027214,0.38645767490902855,0.009876949493692848
3025.924450891798,1.8186733207910721,1.7731579004932552,0.045515420297816925
3029.732343928824,0.08349683111435718,0.07790596434100479,0.005590866773352392
3036.15653767334,0.38515903958495695,0.350038780141458,0.03512025944349895
3037.7639105598037,0.09855958141378628,0.015028486332578321,0.08353109508120796
3039.850869835247,0.3899940177656142,0.2619727168209857,0.1280213009446285
3041.3625289101706,0.3341596867252878,0.2975307558743999,0.03662893085088785
3044.960553900569,0.9400298727498092,0.001970772867012269,0.9380590998827969
3049.063924069962,0.13279014935115924,0.10426381188030985,0.028526337470849393
3049.8591370115805,0.9484019259633742,0.9407493627652476,0.0076525631981267
3052.0127343375175,0.3779969864180148,0.36605756443459503,0.01193942198341977
3058.0121918781065,0.23058648565922454,0.016675833914239702,0.21391065174498483
3068.163314529729,0.011324140109830426,0.008987306048443064,0.0023368340613873616
3075.7007077174394,0.30324369164378306,0.22605612460093136,0.07718756704285168
3078.830275658654,0.16872053565548234,0.06400407181604252,0.10471646383943983
3087.0051585370325,0.008587844241735521,0.005722976200644902,0.00286486804109062
3096.4001110706968,0.08350247326633603,0.003108174302294301,0.08039429896404172
3112.833918715951,0.1276774821958146,1.0244477079512758e-06,0.12767645774810665
3120.971224555983,0.4112286481998437,0.06322287281777009,0.3480057753820736
3129.709482753763,0.514744487532189,0.15958314546001728,0.35516134207217176
3136.0615579467835,0.7020594770532833,0.35877720335728946,0.3432822736959938
3137.172933954318,0.23755664719044778,0.12674412591884007,0.11081252127160772
3167.3484850524765,0.1808120244789122,0.0711430331310391,0.10966899134787311
3171.9776278907966,0.34491474650774734,0.18518952085838727,0.15972522564936004
