frequency_cm1,total_intensity,isotropic_intensity,anisotropic_intensity
2.921106345801725e-05,0.0,0.0,0.0
1.5225455251004968e-05,0.0,0.0,0.0
1.8249334985670175e-05,0.0,0.0,0.0
0.43218345952200626,0.0,0.0,0.0
0.6412070408264336,0.0,0.0,0.0
5.686841788819468,0.00616359358779557,1.1126301980932798e-10,0.006163593476532551
11.248668042809715,0.00017288866483087238,6.537101320051281e-08,0.00017282329381767186
18.0871238886305,0.0007324306676913604,3.272989827509732e-10,0.0007324303403923776
18.444039357552732,0.0002496079149505191,7.337996444936337e-08,0.00024953453498606975
29.71211430855359,0.0009888593913834343,2.7742572122711954e-08,0.0009888316488113114
40.48000351130956,7.787196572832242e-05,9.419121731096433e-08,7.777777451101146e-05
49.23758374329277,0.0002618584733896089,3.164698925866751e-06,0.00025869377446374216
50.62383464598128,0.0003045788796162428,4.793799410412869e-06,0.00029978508020582994
71.4820461304943,6.960758875774202e-05,5.816209735933248e-08,6.954942666038269e-05
81.4523943834435,0.00016769671343721165,1.6932607977069385e-07,0.00016752738735744096
94.56212525052408,0.00016471750037959633,1.3716793311801406e-06,0.0001633458210484162
97.62282734300851,0.00011708915682493467,8.591232093866888e-08,0.000117003244503996
110.93721478382827,0.00018956117927595366,4.902301663902113e-06,0.00018465887761205153
119.0865678784589,3.952473553152485e-05,9.759907498418913e-06,2.9764828033105937e-05
130.26693358329467,0.01852388856957706,0.011419938312140039,0.007103950257437024
145.1311103492809,5.162966438168906e-05,1.869245215129314e-05,3.293721223039592e-05
150.34530059570835,0.0004004536197214063,0.00022907269221725656,0.0001713809275041497
151.1395293957825,0.00038559274795457006,0.00023353106167274085,0.00015206168628182918
171.96872833968206,2.5752040484327228e-05,7.540363122157343e-09,2.5744500121205072e-05
172.85441013557562,3.5120504288303243e-06,7.258337698413223e-09,3.504792091131911e-06
208.20047070298338,0.0008458368353447773,0.0005352413833848031,0.00031059545195997416
243.81995125963223,0.00010019242652584017,4.699396825899472e-10,0.00010019195658615758
245.90834528297052,2.1219522956099653e-05,1.604252531806534e-09,2.1217918703567848e-05
254.7924980640015,0.00025520548697633517,1.8295505854125918e-05,0.00023690998112220924
279.1192375277997,0.0007360683843404376,0.0003704264378347896,0.00036564194650564805
341.1797634806501,0.0004641311136676828,4.7263912155747823e-05,0.000416867201511935
347.34394605797456,0.01065196592591377,0.007236333431596264,0.0034156324943175062
396.2514044720892,0.0030154563327717964,0.001822317988414684,0.0011931383443571123
420.4822399407957,0.0002721768308509415,0.00015544665648223232,0.00011673017436870917
466.5821437042767,0.0002664299472728117,5.729810483310492e-06,0.0002607001367895012
470.5095225265381,4.3601018711061954e-05,1.4931671034328006e-05,2.866934767673395e-05
498.93126677370236,0.0002397380449688977,5.1722864057513904e-05,0.00018801518091138378
517.5498343458595,0.0009834615939720527,0.0006164822688814415,0.00036697932509061103
691.971757487609,0.0038151601648599097,0.00015637329094382615,0.0036587868739160834
697.2270605979503,0.000197367719219223,1.648487191635484e-05,0.00018088284730286816
727.9851308966844,6.915952325164933e-05,9.650643761228177e-06,5.950887949042115e-05
728.9290113361469,6.533065724619078e-05,5.120813193149257e-06,6.020984405304152e-05
732.2184558160293,6.991304976218361e-06,1.151677683445848e-06,5.839627292772513e-06
740.5539199211412,0.00012045770705832702,6.965998599891814e-07,0.00011976110719833785
755.022473352461,3.474732853963577e-05,1.0718534132271136e-06,3.3675475126408654e-05
776.3419697190639,0.0006738735404716255,8.194043415164374e-06,0.0006656794970564612
806.4216038951519,0.00036494167918960465,3.0153021230152555e-05,0.0003347886579594521
842.9219589400097,0.0012685077016015985,8.216440425425788e-05,0.0011863432973473406
878.438986217417,0.0012777049533751153,0.0005142351757043077,0.0007634697776708077
884.3145220712279,0.05319631639745538,0.039578538748294256,0.013617777649161122
908.2639101814568,0.03229601250308761,0.019568790059951158,0.012727222443136456
916.8448153100132,0.00028773795670509317,2.2895696844129248e-05,0.0002648422598609639
918.9713746478693,0.005110528226034518,0.00147098126922695,0.0036395469568075677
963.3944828294337,0.0006176873988312305,1.5532707797249294e-05,0.0006021546910339813
1005.419153565947,0.0025346843374060785,0.0013669116800285683,0.00116777265737751
1009.5644226357743,0.00033411951107781973,2.5443990742097118e-06,0.00033157511200361
1014.038173758261,0.005586576603673886,0.0027356567728464244,0.0028509198308274615
1026.1287823578573,0.0004731479332615093,0.00020416605552721752,0.0002689818777342918
1046.9997885285295,0.010240605261513134,0.000634110958789506,0.009606494302723628
1047.5518099113767,0.0029716275105058348,0.00012528159965140428,0.0028463459108544306
1055.2156700372545,0.003720322670825566,0.0013358160107287671,0.002384506660096799
1065.9127809239976,0.031841944558479274,0.013288875935164706,0.01855306862331457
1068.102033549614,0.004158613068657822,0.0013431894645922246,0.0028154236040655975
1072.53594930737,0.011845386519709544,0.0012837134567889295,0.010561673062920614
1086.3058920983813,0.0004476481425603745,1.949150937105531e-05,0.0004281566331893192
1088.454153925804,0.07151428507523794,0.0003507382147757885,0.07116354686046215
1089.7076683168375,0.03886957610385682,0.0015042866542237104,0.03736528944963311
1091.8581116060097,0.00030824216517126145,0.0001696649669694075,0.00013857719820185393
1094.507788846007,0.018982420612743578,0.004425740903515069,0.014556679709228509
1127.5731927919833,0.04051285493869976,0.023920608452520864,0.016592246486178897
1149.7599630121806,0.0610045546987283,0.043458791118771406,0.017545763579956897
1158.2125857700112,0.23006223380030272,0.1336947521804712,0.09636748161983154
1160.20686664881,0.00775412589538395,0.0016100945941180235,0.006144031301265927
1205.8108136719397,0.010946218687907409,7.40968317528314e-07,0.010945477719589881
1221.9281069457954,0.0016929632435026488,0.0006284717179158461,0.0010644915255868027
1224.9846596159248,0.0012317879557287208,1.54573998800302e-07,0.0012316333817299204
1245.6558782987347,0.001611292486774785,6.687115482989308e-08,0.0016112256156199552
1249.4804382848588,0.0011822906995174402,5.5962375169614075e-05,0.0011263283243478262
1259.3986842250629,0.0005536162040588692,1.6872669786014886e-08,0.0005535993313890833
1276.1759168642902,0.0012866669754575597,8.339748593267196e-06,0.0012783272268642924
1280.067366944693,0.0013840802000315185,6.5335024263953914e-09,0.001384073666529092
1300.9430384766313,0.001259160484851989,6.25687514107957e-09,0.0012591542279768479
1302.0930197208636,0.0014844219937002153,1.3580123073505289e-05,0.00147084187062671
1316.3575598863417,0.032120050460280214,6.358754457896859e-06,0.03211369170582232
1320.95417049389,0.003187958253398868,0.0003279218517027157,0.0028600364016961523
1324.3546926583067,0.10337563169644588,3.6734060824159386e-06,0.10337195829036347
1325.611581032813,0.05369240712605196,3.750677940794017e-08,0.053692369619272554
1331.0828482337452,0.0022919722371753455,1.5327554527962844e-06,0.0022904394817225495
1332.3635369175654,0.004031102248467303,9.763541719475804e-09,0.004031092484925583
1335.260754969493,0.0012989433171309772,4.820595618210972e-09,0.001298938496535359
1337.5358575016207,0.0003233242592075033,1.3953619153414246e-06,0.0003219288972921619
1338.1843913427158,0.0005911032522657657,4.876123703233355e-07,0.0005906156398954424
1338.5797289705545,0.0023266712531729806,6.460578534455236e-07,0.002326025195319535
1361.3645897105932,0.0008495251585369164,0.0001415616037982739,0.0007079635547386425
1383.431532219331,0.0010328314346109088,0.00017938583140964965,0.0008534456032012592
1399.834562935235,0.001564035420808206,0.0004954977481930834,0.0010685376726151227
1408.4268933303233,0.0040184261704905525,0.0005922004688017079,0.003426225701688845
1412.5880229682343,0.002153031876830045,0.001013071988599884,0.0011399598882301611
1414.4703694017385,0.00022942726681807302,0.00013911942625921225,9.030784055886077e-05
1417.2679309703828,0.0006501474600869928,2.343986437617799e-05,0.0006267075957108148
1420.3098478454356,0.012887349822273398,0.00013372706090245483,0.012753622761370943
1421.3786684269223,0.0002605340719169467,1.9693653330725662e-06,0.0002585647065838742
1422.395390904126,0.0015685812778067688,0.0005816444061576615,0.0009869368716491074
1445.412638062474,0.004174947537815333,0.00010315150990907661,0.004071796027906256
1456.5625338926304,0.03405824924147105,0.00048373021699289656,0.03357451902447815
1480.2792294134113,0.00017435343857266655,1.7432435280807233e-05,0.00015692100329185932
1480.343903102422,0.005151466889792868,0.00010431843589230897,0.005047148453900559
1482.508610969705,0.0017979450970474313,0.0008199107491190474,0.000978034347928384
1482.6469151777026,0.0018032433586650228,0.000515238761436385,0.0012880045972286378
1484.852948016457,0.2460829743709413,0.018611387077858935,0.22747158729308237
1485.5876811635546,0.0025504367283279102,3.220104131874868e-05,0.0025182356870091615
1488.0877911761374,0.04230426723881027,0.0012530121935452776,0.041051255045264995
1488.95215484023,0.028717860903217356,0.001483433642406148,0.027234427260811208
1493.111158080636,0.001516155168618462,0.00010555774116308358,0.0014105974274553784
1493.7262019451125,0.027036619920895497,5.106370561902368e-08,0.02703656885718988
1494.2755904911874,0.02664155610741784,7.985180319903631e-08,0.02664147625561464
1497.5223907250245,0.004016862384700033,0.00020528159867132156,0.0038115807860287115
1501.5497752619833,0.000857343041097808,0.0002689576075446563,0.0005883854335531517
1504.0176313605552,0.003428529849684191,0.0009406602725559066,0.0024878695771282846
1504.695566795327,0.000987931891781353,1.5287158728520028e-05,0.000972644733052833
1506.373923970076,0.0012287095979649763,8.002520109842712e-05,0.0011486843968665492
1811.6650704407666,0.034867994695696056,0.011628615635387769,0.02323937906030829
3020.4742455064734,0.06097760493391127,0.05978067385099109,0.0011969310829201794
3021.6711547923474,0.1879841874203192,0.1767323836500777,0.011251803770241483
3021.8351543364415,0.019376189985755157,0.019138968991475665,0.0002372209942794916
3023.3052694365538,0.0143125857345799,0.008109126784458078,0.006203458950121821
3024.7943321009875,1.4175090706793503,1.3996409412141961,0.017868129465154203
3025.014573962591,2.5422734421716626,2.485786595319306,0.05648684685235664
3029.471378351094,0.028736350199496493,0.02311879147427947,0.005617558725217023
3030.9799668313717,0.015617663105180892,0.008233709642767668,0.007383953462413224
3034.214782881919,0.19823192816735452,0.18580460674811983,0.012427321419234688
3036.4641194591445,1.1668649226320265,1.125937028224054,0.040927894407972586
3038.356210754078,0.17357597901192168,0.15972858275901,0.013847396252911674
3040.9204501139716,0.353423267154522,0.3241251025449362,0.029298164609585783
3043.039324978922,1.523138301424076,0.00015748898786561362,1.5229808124362103
3043.984188322175,0.03636452971526173,1.6874506496999884e-05,0.036347655208764734
3046.000300205113,0.2628870865259046,4.182503523548893e-05,0.2628452614906691
3048.0694852257134,1.0822795199690265,1.0780490911444023,0.004230428824624158
3049.6663100813903,0.004179404508038654,0.003177763389474667,0.001001641118563987
3049.8944989023576,0.9160461755432766,0.9088340750225541,0.00721210052072257
3055.4495625492086,0.07498885444131285,7.728932346588267e-05,0.07491156511784697
3058.990705044836,0.028094468180666212,0.008888550237178806,0.019205917943487406
3063.2223057173223,0.09597797569629866,0.0930581515916407,0.0029198241046579695
3063.6179420377234,0.15995929330265732,0.15237360975119754,0.007585683551459764
3066.412761116895,0.5418022326201507,0.004375441838757657,0.537426790781393
3071.597023173047,0.02331387437413712,0.00010771046293712888,0.02320616391119999
3073.2716424243577,0.3707464013418439,0.30561404313689733,0.06513235820494656
3078.4331488577855,0.04858092222918825,4.476240170796025e-05,0.04853615982748029
3084.5126633479977,0.01961218045001422,4.461830452876104e-05,0.01956756214548546
3089.1391750935272,0.005940738772772817,0.00021601040049020473,0.005724728372282613
3096.2756018385717,0.2776786257043437,0.0004618549963035293,0.2772167707080402
3105.7558273043082,0.03899576068571895,7.603098665413245e-05,0.03891972969906482
3112.8040225632835,0.12952551333175139,1.2890743809823635e-05,0.12951262258794155
3119.9450176420864,0.03633494769984406,7.655235297107355e-07,0.036334182176314345
3121.0682988048543,0.40972247180131327,0.06258752042383062,0.3471349513774827
3123.7929983010063,0.42686268520850856,0.09039861273180773,0.33646407247670085
