frequency_cm1,total_intensity,isotropic_intensity,anisotropic_intensity
0.7791216828095009,0.0,0.0,0.0
2.1256003310244092e-05,0.0,0.0,0.0
1.71220643531539e-05,0.0,0.0,0.0
2.850344791478291e-05,0.0,0.0,0.0
0.22773358291633178,0.0,0.0,0.0
1.7461710396136434,0.0,0.0,0.0
16.47944107359213,0.0020738124742883477,9.950079388475589e-06,0.002063862394899872
23.487656358983692,0.0035478569599016433,5.463457396026159e-06,0.003542393502505617
24.340845348099055,0.002250538713903476,1.9274998874530316e-06,0.002248611214016023
33.954069267383375,0.0005121162276955523,8.509681527731178e-06,0.0005036065461678211
47.29815479593461,0.0004752987025155042,3.6086977394556396e-05,0.0004392117251209478
68.81537929476411,0.0001395491191965757,4.5749471862683145e-06,0.0001349741720103074
75.3819637218127,0.00048484610842074725,2.965287623720832e-05,0.00045519323218353895
84.53874394631823,0.0009946809257019443,2.6612055013778495e-06,0.0009920197202005665
94.10004813058288,0.000321056752662303,8.946918276749208e-05,0.0002315875698948109
116.90426982322478,0.00025185941731884815,8.087917739712905e-05,0.0001709802399217191
121.46040614615026,0.00017517459867280908,7.40712971035543e-05,0.00010110330156925478
126.20610022977901,0.0003983264774190495,0.0002955202772764392,0.00010280620014261031
149.50431599350662,0.0042590116616605805,0.002910890504600912,0.001348121157059668
162.89207488197454,2.5000366981146736e-05,2.1132441178605416e-06,2.2887122863286195e-05
167.22204273055257,0.0017613785169430616,0.0012537852799505468,0.0005075932369925148
198.30805270152996,0.013336623783736654,0.010177260767207244,0.003159363016529409
214.78190504333523,0.0007250726360640137,0.00012021214643469802,0.0006048604896293157
246.22701962127041,2.0843287208980045e-05,4.873214688364464e-08,2.07945550620964e-05
279.77905873139883,0.0031423728616209066,0.00047648730861305535,0.002665885553007851
301.3228395714681,0.0021210620830990033,0.001016527480190567,0.0011045346029084364
328.096999129532,0.0007412465396953681,1.4482744598299706e-05,0.0007267637950970684
399.35370659105126,0.001554880247123559,0.0012968257907441116,0.00025805445637944744
424.9065625198856,0.0038343253039786387,0.0017843104102379884,0.0020500148937406502
484.931275603089,0.0016152376916897153,5.6334725412899474e-05,0.0015589029662768158
497.81187361695646,0.0016460641678867557,0.001031016775490908,0.0006150473923958476
521.2934862725233,0.005346873939679951,2.7993212222077153e-07,0.00534659400755773
542.420348737201,0.0013534922723186936,0.00023676631490148422,0.0011167259574172094
635.7130791359026,0.018683644380752616,0.00976485787079224,0.008918786509960376
652.816189176778,0.0033956649158214413,4.6002407655668266e-05,0.003349662508165773
727.8139427385958,0.0001158438283054358,8.90628951320031e-06,0.0001069375387922355
728.8321311547056,0.00037540163466417785,1.6850541442751486e-06,0.0003737165805199027
734.1285321145784,0.0002656960945681026,6.532750392955785e-06,0.0002591633441751468
744.0267559503045,0.0005365968273814627,1.8485903533241017e-05,0.0005181109238482217
759.3609890651366,0.0005186012267240233,3.4192120922489307e-06,0.0005151820146317744
793.4144736220096,0.000681923887038705,5.683681988339912e-05,0.0006250870671553059
835.9508376399513,0.002911166421571183,5.004120285306024e-05,0.002861125218718123
857.5891663293286,0.002615014309937411,0.000958080435849477,0.001656933874087934
890.4068918905247,0.02717838416871198,0.024226073525597382,0.002952310643114597
908.2878140875802,0.038512718718623676,0.025279407859804134,0.013233310858819545
910.2668911417031,0.01465612573427598,0.011219464342109946,0.0034366613921660337
954.9653535898551,0.04030069771139934,0.030420250739137445,0.009880446972261897
973.2809496035671,0.0028504791496924116,0.0011729135126299598,0.001677565637062452
1014.4996974785479,0.003773869368915446,0.0021733701202476933,0.0016004992486677526
1017.0633825397042,0.007347327103655476,0.006356337138575439,0.0009909899650800372
1028.3534426812034,0.004378929330754958,0.00021502180808493705,0.0041639075226700215
1052.6518330378422,0.004570070096143013,0.0005387455131249051,0.004031324583018108
1059.0762387430136,0.003174866952314176,5.513043665946287e-05,0.003119736515654713
1070.7808651379542,0.026652320480492854,0.017406053662303647,0.009246266818189207
1077.2404859681883,0.012997822168811292,0.005185747053345438,0.007812075115465854
1084.8710018549934,0.031831892821699376,0.008410766573293664,0.023421126248405713
1090.1138312209462,0.062140973987550176,5.276558842450218e-09,0.06214096871099133
1092.0952422514063,0.005391930091835899,0.0034754730073278026,0.001916457084508096
1106.5319258290135,0.033362144750247444,0.0007507676740719545,0.032611377076175486
1117.2457089937895,0.010963688785789004,8.340352019950622e-06,0.010955348433769054
1141.7194363765625,0.004030191881640738,3.2793783311094372e-06,0.004026912503309628
1152.165097681795,0.12992142141216884,0.07464323873604042,0.05527818267612841
1169.312219606236,0.010498763499430037,0.001990812448459423,0.008507951050970615
1200.172784494747,0.035553171078348725,0.01747619791549272,0.01807697316285601
1212.7941755007912,0.015238905118366501,0.00835165689687612,0.006887248221490383
1232.3968704804558,0.0012081518608019837,0.0003557451452368332,0.0008524067155651505
1244.166566450756,0.005065473497398226,0.0029658889643609807,0.0020995845330372452
1265.028423743422,0.0011391680599111302,0.0006719718017429396,0.00046719625816819073
1270.7521510576817,0.0038462071331044644,0.0007246296680537005,0.003121577465050764
1281.6907848674489,0.000881806198910827,9.416922017764347e-06,0.0008723892768930626
1295.160346155156,0.001390476763291645,0.0005808961852687218,0.0008095805780229233
1303.894709834986,0.0013404262572279592,0.00013774118697415847,0.0012026850702538008
1313.0857590296846,0.003505463845159246,0.0015793464874871805,0.0019261173576720656
1321.7699296712692,0.02403948239188366,0.00016116882013290768,0.02387831357175075
1326.801198253655,0.09363759883979354,0.00017932971538919506,0.09345826912440434
1330.43785463731,0.019003327012214112,2.486533967853075e-05,0.01897846167253558
1332.5736632709957,0.013104003941400698,5.5226984746749296e-05,0.013048776956653949
1335.2093940668394,0.0014940000920915938,4.9696096434996985e-05,0.0014443039956565967
1337.7763757226924,0.006473517750357779,9.034378893649079e-05,0.006383173961421289
1342.0638162679347,0.006214224158011879,6.977418045758414e-05,0.006144449977554294
1348.7389363906318,0.026294989478827975,0.00019356763940267817,0.026101421839425296
1374.7419942829144,0.0020038987045938165,1.65522891802653e-05,0.0019873464154135513
1398.2419369525883,0.00041811970066632867,0.00026609733687704695,0.0001520223637892817
1401.1358817102537,0.002917645606247794,0.0018020231200008847,0.0011156224862469094
1412.2025191889797,0.0011276112576208957,0.0010010831127817588,0.00012652814483913693
1414.9462542464357,0.005071608554277633,5.729000690422742e-07,0.005071035654208591
1420.5566175474403,0.0003031760051764153,0.0001345453343261885,0.00016863067085022679
1420.6572124523002,0.009723648622331525,9.2306963254607e-05,0.009631341659076918
1434.9545883265646,0.006729673156105342,0.0017849088051950818,0.00494476435091026
1456.9670167158501,0.02091873071586639,4.390391488355431e-06,0.020914340324378035
1480.2467527241424,0.0031831065225718246,2.932146210678212e-05,0.0031537850604650424
1480.5244796230643,0.005058214741538506,0.0005848593799807712,0.004473355361557735
1482.4946379726593,0.0056100464480079585,9.233146674304645e-09,0.005610037214861284
1482.682396540867,0.02310387631640659,0.002798872515605628,0.020305003800800962
1484.380111142367,0.14763826431423188,0.007038623052660934,0.14059964126157096
1485.5294212726176,0.06986594565044535,0.004153302099128767,0.06571264355131658
1489.2206904844602,0.009181753823340725,7.56753452091984e-05,0.009106078478131526
1493.7596268238208,0.026771180084854476,2.6206716825650666e-08,0.026771153878137652
1493.9632642649515,0.0077509876273061185,3.0002452205981328e-05,0.007720985175100137
1498.87097914887,0.0003067089847001489,2.728419350243383e-06,0.0003039805653499055
1501.317184016802,0.004079936058756539,0.0001374518603127661,0.003942484198443773
1503.7479918229005,0.0021641543786581063,1.0403267485351e-08,0.002164143975390621
1506.1938316132796,0.0009275589204192752,6.241501046418643e-05,0.0008651439099550888
1839.2727630071831,0.05045334393700025,0.031766091595052434,0.01868725234194782
3021.6868648231202,0.07306731635548397,0.06461030920848852,0.008457007146995453
3022.311965610178,0.001852988671115698,0.0008610139849876629,0.000991974686128035
3023.975704826258,1.0675557403331377,1.033968790953886,0.03358694937925183
3025.1513233471173,0.8295121779812719,0.8203647050346415,0.009147472946630326
3026.5056178452105,0.8588207344032157,0.7783628896476841,0.08045784475553161
3029.3258231433583,1.4235733251822449,1.312615919457811,0.11095740572443388
3030.2030132217724,0.05420207647082019,0.031246479541132185,0.022955596929688002
3035.0588747738498,0.23323282677485083,0.19226626173350397,0.04096656504134685
3039.2373053521565,0.06794441103167936,0.032306129103776754,0.03563828192790262
3041.061135395655,0.42705596186072625,0.3764975468364658,0.05055841502426043
3043.3840692431963,1.0949717617072883,1.3309778327433466e-05,1.0949584519289608
3046.066901991228,0.010710269580553078,0.0004381572123189683,0.01027211236823411
3049.7532894723104,0.9157104654912558,0.9082620781421704,0.0074483873490853725
3051.709141229171,0.25379719860825867,0.010596297189832958,0.24320090141842574
3058.755825075022,0.04901659471622307,0.018209497402746768,0.030807097313476303
3061.60342660419,0.4932218067687738,0.32070750201980114,0.17251430474897264
3064.822729304491,0.39024775782516863,0.185951799245603,0.20429595857956565
3065.9219708426244,0.9449207226553666,0.7283394583555299,0.21658126429983668
3070.676683316854,0.009210283416567992,0.0011384526260932602,0.008071830790474731
3072.4405717616783,0.01878447221502884,0.000505998553915564,0.018278473661113275
3079.6800019604416,0.07105434584646153,6.94548498516227e-06,0.07104740036147637
3086.6744027815325,0.009831749368520343,0.000376181287550994,0.00945556808096935
3092.3465411892957,0.02647648129081655,5.051233256123378e-05,0.026425968958255316
3096.6325062317383,0.2305818307497436,0.012162330190135356,0.21841950055960824
3112.7457631500984,0.12899685507508157,7.210719702076603e-07,0.12899613400311136
3119.3112977423375,0.013467514380432227,0.009369505022651579,0.0040980093577806485
3120.7701080526135,0.4092623030866265,0.06203403039702444,0.34722827268960205
3798.7429133966507,0.4686391868264516,0.28941740542760064,0.17922178139885098
