frequency_cm1,total_intensity,isotropic_intensity,anisotropic_intensity
1.5911041777006318,0.0,0.0,0.0
1.2377024064898188,0.0,0.0,0.0
2.3027417625356567e-05,0.0,0.0,0.0
2.1887861397345288e-05,0.0,0.0,0.0
2.331640933688367e-05,0.0,0.0,0.0
1.1796382941793098,0.0,0.0,0.0
19.186305345590245,0.020624110219909522,0.0005017524961615201,0.020122357723748003
21.387602615391817,0.0076654614496917675,1.88510130195267e-05,0.007646610436672241
33.454119810456575,0.027248994041861995,0.00014168404110981387,0.027107310000752182
44.49274933806435,0.004529565435789607,9.06437696744169e-05,0.00443892166611519
66.67167841241381,0.010130808907511349,3.456161081515298e-08,0.010130774345900534
90.16706323591798,0.004160528257202182,8.532153980492026e-05,0.004075206717397261
109.0384312248155,0.008088535086094247,0.0028615250302947764,0.00522701005579947
110.11358813013369,0.019407313565490376,0.000162144675560462,0.019245168889929914
217.07755355014592,0.014255612061722076,1.5777217491563773e-06,0.01425403433997292
267.05730064572157,0.004838041638749357,0.0014069111238889378,0.0034311305148604187
301.17058560705357,0.00542226675959646,0.0018586911554089027,0.003563575604187557
323.12509753914657,0.006666641000423128,0.0028162057531599797,0.003850435247263148
339.44694420506886,0.009480693887337008,0.006263388590983007,0.003217305296354
361.46461428393616,0.0020536742293424375,3.1603378151593295e-06,0.002050513891527278
416.47120290447737,0.0001528185760173933,1.3156681238565406e-08,0.00015280541933615475
417.9371302879569,0.0011692117492630644,0.00044378040940125314,0.0007254313398618113
459.95572433886747,0.009405974061536712,0.007230475190918023,0.0021754988706186897
489.9429141411255,0.0019348343249272182,0.00021124761067046409,0.001723586714256754
502.4792242640453,0.006339864649115873,0.002601847593306647,0.003738017055809226
515.2909951939803,0.003515893087095924,0.0014635526940572421,0.002052340393038682
561.7344170776893,0.0028850809571159433,0.0002949595015602613,0.002590121455555682
574.9962416542876,0.00935242524601811,0.0026484172707368276,0.006704007975281282
631.8056595635236,0.013886920841159592,0.00025747814277523787,0.013629442698384354
635.1762726728804,0.018814252572241848,7.612785105290919e-05,0.01873812472118894
647.7905228699212,0.011717937571557584,0.0011301716888330498,0.010587765882724533
720.3247890592343,0.004223124526932938,0.0027228258865546677,0.0015002986403782701
724.7515479253962,0.0010895194495516005,2.4212043899270393e-05,0.0010653074056523302
731.1181418583866,0.02184630152545706,0.018265839143257218,0.0035804623821998425
756.9871974661404,0.015094333996294382,0.012895808130884485,0.0021985258654098967
775.8269554263763,0.002187511140821996,7.940816518551522e-05,0.002108102975636481
779.3577183850842,0.006123385621610255,0.004350301876343597,0.0017730837452666582
844.3437237736454,0.05808309463110308,0.054516910317738254,0.003566184313364826
857.897370785095,0.026696180973024078,0.01667465557167977,0.010021525401344307
873.4613393793788,0.001967040480437059,0.0007063834560499187,0.0012606570243871402
878.3546807667051,0.002742212649891426,2.9082939176398842e-05,0.0027131297107150275
881.0775236712785,0.044906334826176675,0.0383562119513665,0.006550122874810171
940.2389439109693,0.012684748862716809,0.011042543804248267,0.0016422050584685422
943.854065880805,0.0036956939550200126,0.00018477609998998075,0.0035109178550300317
965.627769996539,0.0032925078361491357,0.00021694792389163078,0.003075559912257505
1007.8349754133039,0.00036814899679155815,0.00018065609583513742,0.00018749290095642076
1013.1857177175289,0.00012829183421526235,1.5179091937968331e-05,0.000113112742277294
1026.1973760255614,0.020998671880747465,0.0010632280443404858,0.01993544383640698
1026.8572327251622,0.2382760262002019,0.2242964832277906,0.013979542972411298
1029.464107728341,0.03388557244726284,0.03266416190570364,0.0012214105415591973
1031.1073803543352,0.013885853013505594,0.007811727746382955,0.00607412526712264
1034.0308463263543,0.0030768025070908264,4.4399692219997644e-05,0.003032402814870829
1051.5069733369178,0.07686720531844214,0.0389389424237422,0.03792826289469994
1063.9682803891762,0.1005125190898268,0.08769182166653111,0.012820697423295686
1065.3438582152942,0.12595944011657342,0.11727133496732357,0.008688105149249838
1104.6625524817455,0.008068067008207964,0.005225451515024382,0.002842615493183581
1113.5840830828943,0.0025631603449979452,0.0009806236035929542,0.0015825367414049908
1129.0182913279655,0.003555153615750984,0.002057966052414599,0.0014971875633363852
1173.2571429491957,0.004437500310035382,0.0008705523175813301,0.0035669479924540525
1176.5405111598477,0.01807556789729865,0.00048066161006416966,0.01759490628723448
1183.856604506881,0.028609993189305776,0.0005380597068387413,0.028071933482467035
1205.548474436843,0.0223042131197087,0.0005069081899414821,0.021797304929767218
1208.8486314461456,0.019907191995115613,0.0009235514557983383,0.018983640539317274
1228.2843300069203,0.0769839381161029,0.06612937364616608,0.010854564469936823
1230.8246539691634,0.018735250082761248,0.01376784655511998,0.004967403527641267
1238.772840967687,0.08193837617107165,0.06783414117833914,0.014104234992732516
1299.990705698678,0.006280068214115253,0.0009432470794544256,0.005336821134660827
1315.608741847589,0.03909297731982347,0.022182126836488705,0.016910850483334763
1319.3879339709588,0.014243735640885404,0.009550121974951111,0.004693613665934293
1327.513793804292,0.055748196263356795,0.04423840451344853,0.011509791749908266
1335.7314466826122,0.027332798681522146,0.0006764616941942162,0.02665633698732793
1364.5000028825011,0.0013887734506927362,2.4156138016685463e-05,0.0013646173126760507
1364.7453807996171,0.002753590926066087,0.0007532929031685838,0.002000298022897503
1387.5564317409562,0.026079026223267795,0.005093452130245656,0.02098557409302214
1419.7308706402166,0.04606641080896787,0.0196841433229652,0.026382267486002663
1471.074821724762,0.020196902427493526,0.00021193593279531105,0.019984966494698216
1491.8253347591344,0.06522425119877134,0.0035849421409077636,0.06163930905786358
1497.9343737180395,0.01509615912709901,0.007489499182547571,0.007606659944551439
1499.8356832294035,0.005758777463948322,0.00020862318619605997,0.005550154277752262
1500.8440624528648,0.015577766618305282,0.0011083267208897777,0.014469439897415504
1509.3472722446272,0.019476163577531923,0.014958952033777752,0.00451721154375417
1544.3329916360915,0.0009294165192933923,9.328136725782408e-07,0.0009284837056208141
1546.1190353701036,0.003557284913315952,0.00040643138779665526,0.003150853525519297
1661.5069634819795,0.042419876773047926,0.0002509113093309395,0.042168965463716984
1662.8659976123158,0.04254777563571061,0.00022788872334376229,0.04231988691236685
1682.7367798745113,0.13959067021783558,0.006994849992784969,0.13259582022505062
1684.6261393197487,0.15597290148389056,0.025307501167690157,0.13066540031620041
1769.2759639473845,0.10905848070047408,0.04274264057056792,0.06631584012990617
3069.129684603875,0.567500857555354,0.504647005246579,0.06285385230877492
3087.5851555695517,0.17280779487780026,0.07789559166637244,0.09491220321142782
3090.690280677529,0.8681653914212644,0.8037378395803989,0.06442755184086546
3108.9228313954554,0.2350964660456083,0.013766889416012939,0.22132957662959535
3136.625049186239,0.0803183245322705,0.03516978293652236,0.045148541595748146
3146.4487967719047,0.2804619235834256,0.04569856598646297,0.2347633575969626
3179.7963492024865,0.1842957761813449,0.020765845826137663,0.16352993035520724
3181.8013793337404,0.4287315942945331,0.17540104173440477,0.2533305525601284
3184.997656502328,0.22437264116615968,0.0532871376786183,0.17108550348754137
3194.433159807806,0.24814018115915645,0.004302650235615118,0.24383753092354132
3200.191117791906,0.5318887258409271,0.17173320660221314,0.360155519238714
3202.609388745415,0.4069546099566613,0.10874000160082746,0.2982146083558338
3208.677311134798,0.22253025275245897,0.00022876705228952801,0.22230148570016944
3211.2038054664217,0.157423674558301,0.0001383870281234449,0.15728528753017756
3221.81443210299,1.3178053945878427,1.03904292654892,0.2787624680389226
3222.4045524144,1.4813278141322694,1.2082833796750336,0.2730444344572357
3650.426563383172,0.47694498606323155,0.34483150612572694,0.13211347993750458
