frequency_cm1,total_intensity,isotropic_intensity,anisotropic_intensity
1.7667322299337367,0.0,0.0,0.0
1.0346910964837885,0.0,0.0,0.0
3.343230630828815e-05,0.0,0.0,0.0
2.4473060943900772e-05,0.0,0.0,0.0
1.4352900955277823e-05,0.0,0.0,0.0
1.6380945984103732,0.0,0.0,0.0
39.57720406170926,0.0037425014192249426,6.28563131607936e-07,0.0037418728560933345
42.43521483927606,0.0007361728333800619,2.8166894367501605e-05,0.0007080059390125602
71.34036532667376,0.006684347465778382,0.0006421985697073175,0.006042148896071064
82.82906139141582,0.011919393924213964,2.5611987732886945e-06,0.011916832725440675
94.12247821106473,0.0015551807141227336,0.00024068149717504952,0.001314499216947684
142.27923824008508,0.007108252862299858,0.0001971755211384035,0.006911077341161455
164.58376087527648,0.004866935099550626,1.601735216738798e-05,0.0048509177473832375
194.57338324517033,0.0010760337240433532,2.061475872031828e-05,0.0010554189653230349
215.22703400277427,0.0004427380286188056,0.00010844774726169367,0.0003342902813571119
223.16027408172712,0.00525573549028136,0.0014277453441703387,0.0038279901461110207
239.3136539504297,0.003125322011674154,0.0020487568615520095,0.0010765651501221446
248.80338170656833,0.0016061564096063303,0.0006453672704008196,0.0009607891392055106
268.48184843532704,0.004311195666250498,0.0008472782097356918,0.0034639174565148055
280.2802115253075,0.005511977373487832,0.0001594540895465054,0.005352523283941327
293.0945516364286,0.0009459283816639629,0.0006648674179148589,0.00028106096374910393
307.8310870299477,0.003750175434144169,0.0029710753192667876,0.0007791001148773813
323.00500423434755,0.005387606225792251,0.0023399791685052855,0.0030476270572869658
336.5520988589528,0.00658331114390753,0.002404765957933454,0.004178545185974076
388.0901506703759,0.0033782264967050666,0.0013299387536761605,0.0020482877430289064
408.42464998496035,0.0043249163239536,0.002550848235017409,0.001774068088936191
463.57807597305737,0.01157678095329048,0.008170525941572823,0.003406255011717657
473.1065486877689,0.006680800444721554,0.0026545868256022892,0.004026213619119264
495.4941803832736,0.015989749341141342,0.007327362352271353,0.00866238698886999
554.853163822474,0.01037105893778991,0.006189303744062154,0.0041817551937277575
579.4315879184877,0.009009197644734507,0.0066265649068249265,0.00238263273790958
603.3485336758539,0.023480809125880343,0.01689781322406737,0.006582995901812974
640.4148927639419,0.03129744555545835,0.024103450739283005,0.00719399481617535
685.8307875636661,0.06860540525062045,0.062403604762469804,0.006201800488150647
777.2228810798483,0.0020013486511063737,4.3329312267937705e-07,0.002000915357983694
787.3167991688937,0.0010608044814618685,6.114607407552042e-05,0.000999658407386348
794.9052343585034,0.017962423374345036,0.015694371802891342,0.0022680515714536935
810.776133391636,0.003537517196685872,0.00029456439194176624,0.003242952804744106
837.9102949721823,0.004015224787941079,0.0004861217176268411,0.003529103070314238
845.8115645029226,0.02145898943583664,0.002487389688625321,0.01897159974721132
866.7219141640844,0.07111052492517125,0.04933536590528926,0.021775159019882
909.8132991819259,0.0037778916207272216,0.0006963948429244657,0.0030814967778027558
941.7916137877371,0.0014410129673844464,4.172932393759176e-06,0.0014368400349906872
975.4602042370559,0.0027611561671610826,1.5343323192530618e-05,0.002745812843968552
991.4825832643633,0.02373273335134931,0.011779368799243201,0.011953364552106107
1002.1798468341283,0.000612600065499367,1.5107700254226947e-05,0.00059749236524514
1010.9770139172412,0.016871894267595312,0.0023291257178871135,0.0145427685497082
1022.9531416081933,0.01523817060748392,0.004418625073483903,0.010819545534000018
1025.071048439884,0.0060135884979702165,0.0015534865077089267,0.00446010199026129
1046.6341807669603,0.008014523400736308,0.005585976322572884,0.0024285470781634233
1088.1389102600365,0.04882954280736679,0.03916028693670319,0.009669255870663598
1109.2740177381045,0.00403492502241854,1.981352705022124e-05,0.0040151114953683184
1126.9080634121296,0.03667541391855727,0.010440787081993277,0.026234626836563992
1131.8114500599286,0.037873961080198665,0.02477785193153085,0.013096109148667812
1140.628891550878,0.033255007638064875,0.022088083568067414,0.011166924069997463
1167.329810216394,0.00902098438980792,0.0002957867791986292,0.008725197610609291
1179.0643550074153,0.014304851214319365,0.009916930021963904,0.004387921192355462
1194.9208423169387,0.019165473871829725,4.232118085749248e-05,0.01912315269097223
1231.1699121026613,0.015074348937933166,0.0037818218612145735,0.011292527076718593
1250.9117860679137,0.025708869958343414,0.01972462780500849,0.005984242153334926
1268.5910600427785,0.016045598372882604,0.010013609419231007,0.006031988953651597
1287.9518415246873,0.08907613435465839,0.08086717864419404,0.008208955710464339
1296.7258903770983,0.010181122106626748,3.6852899975065512e-06,0.010177436816629241
1306.1324026725952,0.020269494756414364,0.010459609939901601,0.009809884816512763
1327.6883602794237,0.021493820945324045,3.6811814188488795e-05,0.021457009131135556
1330.1354852684647,0.04623929404546716,0.019085673563822802,0.02715362048164436
1350.722145159525,0.021357523425100965,0.008378884093053582,0.012978639332047381
1379.5971374443182,0.008931836636741347,0.002610684944338334,0.006321151692403013
1383.4295253050338,0.01643983051451122,2.8245325972159416e-05,0.016411585188539062
1390.025483956753,0.0218885043602549,0.002619195646997563,0.019269308713257334
1402.558415666201,0.006879264907586391,0.005718009724494418,0.001161255183091973
1406.3246212727636,0.015376460421738257,0.00740051489431212,0.007975945527426137
1412.852210480012,0.0021251481214441966,0.0001516821967491172,0.0019734659246950794
1415.0068924825862,0.003455864883759459,0.0008586662306349626,0.0025971986531244965
1419.1289092633162,0.00822643758361565,0.003977496743653544,0.0042489408399621065
1481.585330743373,0.04362667163619281,0.0011570681234845364,0.04246960351270827
1487.3072187781188,0.030056674547812193,0.0008429801059582863,0.029213694441853906
1490.3023159959132,0.038628696200326273,5.940286619646065e-05,0.03856929333412981
1491.5352822818802,0.00922971006446753,0.001786880080248082,0.007442829984219449
1492.916708916241,0.01292844507872653,0.0010550153996429143,0.011873429679083617
1494.7243062199798,0.06154290479152571,0.005585186922927743,0.05595771786859797
1500.1727405938386,0.005569791069898806,3.0304993560963978e-05,0.005539486076337842
1502.9060703683028,0.0052683882728580675,0.001962931071990325,0.0033054572008677425
1504.6732585809696,0.025098277137345533,0.00232318810667002,0.022775089030675513
1510.0450302603406,0.026140135896856428,3.8146418729016504e-05,0.02610198947812741
1514.0276912829993,0.002052602097668683,0.0006699687666424907,0.0013826333310261924
1530.4012967974165,0.003844828068607999,0.0026024375275317544,0.0012423905410762445
1668.279609808461,0.11055743584059678,0.003855819082153245,0.10670161675844354
1685.6616570732863,0.06444909826980763,6.252806057308067e-06,0.06444284546375033
2996.807325218044,0.2828927446744878,0.15725899465811008,0.1256337500163777
3039.615135645619,0.2179562006013653,0.06057665522231279,0.15737954537905252
3050.2579277034,0.7452697604976973,0.6724648730344568,0.07280488746324057
3051.520673816584,0.5924158516582083,0.4801192957820216,0.11229655587618675
3054.881771195604,0.37470170488523347,0.2161339985211989,0.15856770636403453
3061.8441950807605,1.4252873873210596,1.282576532352547,0.14271085496851266
3063.578155232459,0.07078969610249837,0.010712218915963726,0.06007747718653464
3066.925228942232,1.8897125631801264,1.8075498450724936,0.08216271810763275
3083.10507585003,0.3316438373909022,0.017338720031198414,0.3143051173597038
3104.5599374247777,0.30651132018666066,0.0033057383566179417,0.3032055818300427
3122.0702268433474,0.30025522898378926,0.023246072455717373,0.2770091565280719
3122.277866599481,0.3904384852195245,0.07381721668792865,0.3166212685315959
3126.897405804975,0.02372772523664238,0.0007741127556256342,0.022953612481016746
3130.482901349074,0.3506493220619835,0.004011162019441943,0.34663816004254155
3133.0068300393436,0.2042698647731782,0.022765741555118187,0.18150412321806003
3136.9557947289068,0.16317424005258896,0.03737614542625558,0.12579809462633337
3143.957623361931,0.17876382727798867,0.0002970528066475081,0.17846677447134116
3150.114543564734,0.1398936111905849,5.412385277486617e-07,0.13989306995205716
3187.023314067637,0.26460867598212257,0.05320731974248544,0.2114013562396371
3206.702500706525,0.527797084851134,0.24658020558072824,0.2812168792704058
3226.290256029975,0.5930060924867361,0.43702158253626405,0.15598450995047203
3869.7907338118625,0.29320303276034915,0.2446292667413164,0.048573766019032724
