frequency_cm1,total_intensity,isotropic_intensity,anisotropic_intensity
1.0948359675484702,0.0,0.0,0.0
0.5627684276833338,0.0,0.0,0.0
7.209402711842876e-06,0.0,0.0,0.0
1.0488752848645638e-05,0.0,0.0,0.0
2.739726329628922e-05,0.0,0.0,0.0
0.10959282052368821,0.0,0.0,0.0
15.02781773145638,0.01159344678969918,0.00013811642106143857,0.011455330368637742
20.171855919829053,0.004709089432201709,8.802308833570201e-10,0.004709088551970826
48.47597167857475,0.011363098191958692,0.0006228218854117831,0.01074027630654691
60.88253275543933,0.004498509530742861,3.938752959315652e-08,0.004498470143213268
66.02997350879026,0.0058227711952292165,3.355437371678967e-07,0.005822435651492049
72.2957327865545,0.002875077243062185,0.0016591460956935518,0.0012159311473686333
73.39102911061983,0.012299587105998747,0.0023366955839631536,0.009962891522035593
115.33565539913846,0.018276427197661184,3.1390607302594467e-09,0.018276424058600454
159.46072934452513,0.008785029374540284,0.0007632057669690373,0.008021823607571246
184.32561747565936,0.0029626652077582366,1.1544452600327199e-08,0.002962653663305636
206.29419099440196,0.006014861957820186,0.003027997803784269,0.0029868641540359174
223.0915679926978,0.002435409247273948,0.0009000050308190304,0.001535404216454918
223.37335558347618,0.0043877187933052285,5.458957770647893e-06,0.00438225983553458
272.5895891638908,0.014030260670624248,0.0035603184260682365,0.010469942244556012
272.89973368765385,0.00022081065220642404,1.3002281119119943e-07,0.00022068062939523283
306.477272110489,0.0008119829099050359,5.278096666559857e-10,0.0008119823820953693
314.8771156363762,0.011620725081906444,0.0003319993796844618,0.011288725702221981
367.7377717235078,0.0041713190175159945,2.1161461708894557e-08,0.004171297856054286
388.3588142249558,0.011246968581836683,0.009646734093957745,0.0016002344878789368
437.7122980000863,0.0006413099617324636,4.0886384958852397e-08,0.0006412690753475047
476.5664391550906,0.029732997488350392,0.020982505448280942,0.008750492040069448
494.70062284648725,0.0024286481304840557,1.3422450165697995e-07,0.0024285139059823987
504.04018610566715,0.047179743609886235,0.04044906579353124,0.0067306778163549975
547.7619328982775,0.004981969907300414,1.6402268444019802e-08,0.00498195350503197
560.7510394248789,0.002908120035801562,0.0002206953200346292,0.0026874247157669326
575.2614337892269,0.01025047503730504,1.177966445695055e-09,0.010250473859338595
605.2099810913325,0.0013054822290212628,2.4724823535549556e-08,0.0013054575041977273
606.7483495657696,0.012337889472833822,0.00023338604635722029,0.012104503426476601
649.852998681096,0.042833827355216694,0.018586018711174084,0.024247808644042607
715.8853955343305,0.00024771759747559287,4.1115440733839735e-10,0.00024771718632118553
753.9079860932148,0.009642695453857575,0.008507814354397049,0.0011348810994605252
755.6855214917981,0.004936968059172908,3.483337349853012e-08,0.00493693322579941
775.6693514539803,0.0033293483681070203,5.916808724390761e-07,0.0033287566872345813
778.1191526178252,0.01448390342870203,0.011784039901697808,0.0026998635270042213
789.6575255216792,0.0006347419265279289,8.855845541311386e-07,0.0006338563419737977
807.7456132873451,0.0036759597998273193,0.00030968351543102647,0.0033662762843962926
808.0623395109141,0.10868897199946174,0.09035462682433507,0.01833434517512668
851.5462164381288,0.0015848208200827764,5.247343457114314e-08,0.0015847683466482052
881.6414848972704,0.029460656755371975,0.02628515944187608,0.003175497313495894
895.9496983454311,0.000238461700920372,9.895749726197204e-08,0.00023836274342311
915.8674293551254,0.0847572465122615,0.07893758755992171,0.0058196589523397905
975.900528841062,0.0007417872045345281,0.0004907485064560321,0.00025103869807849603
977.5516140852826,0.0006372999390385529,2.5140354415787757e-08,0.0006372747986841371
1017.4461912353456,0.00017234116533987843,5.4882624245038e-05,0.00011745854109484043
1017.489206402671,0.0005138422291706667,2.4306083165241996e-06,0.0005114116208541425
1042.5279975492801,0.021084443121782627,0.006230099131040791,0.014854343990741835
1059.072788950379,0.14844551215864887,0.12407989010682488,0.024365622051823996
1060.1966798042088,0.00907346623865542,0.00013916687764709926,0.008934299361008322
1078.3485822727198,0.002110497863878431,4.753429215745564e-05,0.0020629635717209754
1079.4845779308635,0.1282541566870606,0.10707923254475907,0.021174924142301543
1130.5003250481238,0.0019354344209466332,3.05077157599731e-09,0.0019354313701750573
1140.3177674637075,0.03157488794576994,0.0030638085912454774,0.02851107935452446
1170.7845721198817,0.00034789920462177784,1.1853574608149166e-05,0.00033604563001362865
1171.2717201422433,0.019206183300827392,0.005399741368939059,0.013806441931888333
1174.9698522257745,0.004360051734620832,1.8504270963594306e-05,0.004341547463657238
1175.1047761527063,0.02117887180288683,0.0009242295400111321,0.020254642262875697
1197.104017966878,0.003964589318705832,1.8652398847272643e-08,0.003964570666306984
1202.8680298821282,0.023679393605889682,0.021998767044756264,0.0016806265611334175
1224.5544287673176,0.0033625564777192587,6.967676991619834e-08,0.0033624868009493425
1261.045695315141,0.050901694126789195,0.0420031677783619,0.008898526348427298
1272.310843073372,0.004474207879692558,1.0052280891517613e-08,0.004474197827411667
1292.7020220201207,0.0775894678462882,0.07400007813584131,0.003589389710446892
1297.5336987391229,0.0039008000160751363,2.9584724852067567e-07,0.0039005041688266154
1305.9645917273212,0.03344412522220695,0.02674675923668176,0.00669736598552519
1306.3385978704953,0.0013572446470323293,3.186359406169813e-05,0.0013253810529706312
1334.0174429787264,0.25818479865076716,0.1800093756131714,0.07817542303759574
1334.344064351078,0.017379526453558582,0.0005470284466395072,0.016832498006919074
1470.7676194161536,0.004533353064365315,3.1866813239710937e-06,0.004530166383041344
1471.1913609160893,0.0038535098824520556,0.0034573817894231135,0.00039612809302894196
1490.3729697220901,0.02398289435460115,7.548143836513416e-07,0.0239821395402175
1490.7174558677532,0.037130790288280785,0.004471686997425567,0.03265910329085522
1505.386547537161,0.015555542993842531,9.795182425355563e-06,0.015545747811417175
1505.993773928656,0.0008674061157711348,7.63694548638649e-09,0.0008673984788256484
1511.802740818029,0.0281951871022658,1.0826933470119115e-06,0.02819410440891879
1513.356710707857,0.047192088335574055,0.013871775645365828,0.03332031269020823
1551.7365660527933,0.0011848218147873949,8.510724725086802e-05,0.0010997145675365268
1551.9261630278816,0.030052521430350858,0.02100242884070012,0.009050092589650735
1665.8577475551433,0.12023947267437471,0.03037110358785929,0.08986836908651542
1667.1121229286368,0.01725009774218059,5.019038561069795e-06,0.01724507870361952
1682.9995145604028,0.2654212612357843,0.0005079169058758968,0.26491334432990843
1684.6350772049896,0.04435218354458115,8.15406285905967e-09,0.044352175390518285
1839.0014983789708,0.013179515021057185,0.007705733801167391,0.0054737812198897935
3056.2271044605277,1.2496481397018204,1.2426800973952263,0.006968042306594169
3056.6697729586303,0.06633434305502725,0.06076765243627797,0.0055666906187492775
3128.2365702037946,0.12591337452682597,0.02954053225076338,0.09637284227606259
3128.4236270360952,0.14488901767075318,0.01862669107424846,0.12626232659650471
3153.063921076676,0.1809740628838703,0.04423419323195803,0.13673986965191226
3153.3624675064857,0.6961420837919858,0.1838199360829284,0.5123221477090574
3206.0560407612456,0.21480064613885091,0.011174527363584425,0.20362611877526648
3206.0824091380105,0.25267554047724483,0.014652479552686929,0.23802306092455788
3216.171080577687,0.6512416872274474,0.021396090620004245,0.6298455966074431
3216.242823257296,0.18609331479046975,0.0033877213077919,0.18270559348267784
3224.699371760162,0.08667748316204016,0.016158098337942094,0.07051938482409806
3224.7115069632914,0.4346485481973019,0.1068860286049649,0.32776251959233704
3232.682594383004,1.5612725814224098,1.2776802464349943,0.2835923349874155
3232.7505226154362,1.4863014857762231,1.2042657378208013,0.28203574795542186
