frequency_cm1,total_intensity,isotropic_intensity,anisotropic_intensity
1.895936667814052e-05,0.0,0.0,0.0
6.443733033362434e-06,0.0,0.0,0.0
2.1160437912093913e-05,0.0,0.0,0.0
0.5057937250148882,0.0,0.0,0.0
0.821275698578042,0.0,0.0,0.0
1.1164593821895452,0.0,0.0,0.0
19.262445572898567,0.01863314735112107,2.1658662022364593e-06,0.018630981484918832
29.831078216562112,0.006041037660504659,1.181642802843077e-08,0.00604102584407663
36.83191511918046,0.020256898442169498,9.16039712648389e-06,0.020247738045043012
44.247020046286,0.0014057045091020286,4.5268592694416584e-05,0.001360435916407612
50.923381021092624,0.0012412546484558919,5.328434293229324e-06,0.0012359262141626625
70.66845274882056,0.0019593841780609377,1.6372693231912551e-06,0.0019577469087377463
101.92536453796731,0.002017963135240033,1.854041045824799e-05,0.0019994227247817848
108.79729340406976,0.0031346962833178893,0.0004816966856153498,0.0026529995977025394
115.90251818768732,0.006007748625667769,5.568695534756778e-05,0.005952061670320201
130.9075891460579,0.002204265407630799,0.00023361543108912778,0.001970649976541671
137.0828732470421,0.002059187637793289,0.0002986294387316095,0.0017605581990616799
145.9350925839705,0.002404209134653569,0.00023180787755280855,0.0021724012571007604
179.39415020508437,0.00336871240387116,1.3945195926498052e-06,0.00336731788427851
198.8602069111085,0.0017526862150793277,1.3545159528942237e-06,0.0017513316991264335
214.00746944240592,0.0019403180187651313,0.0015496955023690496,0.0003906225163960816
232.98779959163653,0.004140184734276683,0.0029610195167804124,0.0011791652174962708
255.03630791877254,0.007653739507959682,0.00020157719723878296,0.007452162310720899
278.98415766303367,0.006608813543336647,0.005403339712282789,0.0012054738310538578
297.8472609007563,0.003905928429569121,0.0028964447906154813,0.0010094836389536396
334.99437484868275,0.002029815689897761,0.0014661896003069549,0.0005636260895908059
344.34666610385574,0.005106285323597491,0.0035279315983372046,0.001578353725260287
364.31372230169427,0.009160169280305793,0.0007155299334119221,0.008444639346893872
382.3119767274627,0.016939197419171312,0.010132055692672618,0.006807141726498692
420.7122723566167,0.0014897772949913112,0.0007193428871287277,0.0007704344078625835
448.1409896416668,0.0032849521562933236,6.945969650773049e-05,0.003215492459785593
457.7864945184861,0.004476766865499326,1.9025370122233407e-05,0.004457741495377093
474.0322123609602,0.0002865149508989552,5.506126821223489e-06,0.0002810088240777317
542.5573780136074,0.0025024738054727994,7.032511168896128e-05,0.002432148693783838
569.8885518593495,0.017649921045377798,0.014762634939925261,0.0028872861054525362
597.2352320072738,0.00661381624107457,0.0022031203002934006,0.004410695940781169
642.7121801759265,0.040051433128295115,0.03461515134268348,0.0054362817856116324
693.3098374536173,0.0008422322654766745,1.826445565018263e-05,0.0008239678098264919
703.4005715687739,0.017797114666623003,0.011179591055962262,0.00661752361066074
717.8504164168824,0.02512583413563272,0.01959461581239675,0.005531218323235972
721.6437794869652,0.006808882569094765,0.002030640482308863,0.004778242086785902
749.2374908652532,0.00408234570858926,0.0010273564423907465,0.003054989266198514
768.245793318947,0.04766696022274559,0.046760082471268595,0.0009068777514769937
794.5596275827053,0.003697828680565817,0.0005868332100939091,0.003110995470471908
806.9157196255364,0.004875118508295476,1.636349296918275e-05,0.004858755015326293
817.7686200108443,0.006282044594705692,3.487029689323321e-05,0.006247174297812459
828.0932476897754,0.0014165270140085707,0.00016211498336586092,0.0012544120306427098
839.5749072196807,0.0034903444518121773,0.002132314425115591,0.0013580300266965862
878.8541304471712,0.01703471767914142,0.007130573303389617,0.009904144375751805
890.41855919227,0.01941219216254083,0.00919219862504109,0.010219993537499741
898.8415932196976,0.055228663136195025,0.037995448644211983,0.01723321449198304
924.7773366448124,0.0005150304254421155,5.667900083248132e-07,0.0005144636354337907
948.7333213920609,0.006266047099833156,2.925224397491908e-05,0.006236794855858237
979.8712453183531,0.021616224693750772,7.070479936532987e-07,0.02161551764575712
1001.3460845439336,0.00022900949561167636,1.1813057173721394e-06,0.00022782818989430423
1039.1535205885943,0.0008270121148844565,0.0007346925806832413,9.231953420121519e-05
1040.2316113218706,0.17435836861819626,0.16534026959045922,0.00901809902773704
1054.2277561376225,0.04561837391054607,0.017598707708851143,0.028019666201694934
1062.708821951601,0.016251690581617267,0.007823152545993915,0.008428538035623353
1084.618839050599,0.013080852062020401,0.0006389236650286197,0.012441928396991781
1110.499563376753,0.0017094127367315395,9.151981561176456e-05,0.001617892921119775
1123.0009250685353,0.02392089000587018,0.01834881544213893,0.005572074563731251
1125.1447262249137,0.02346562632170414,0.01969140303887154,0.003774223282832597
1159.5016884367403,0.026995473697348803,0.01624671192320319,0.010748761774145611
1179.0598119351596,0.02206526375212345,0.001564921462793155,0.020500342289330294
1195.8738324911828,0.003997279830700861,0.001231631315772277,0.002765648514928584
1199.453597609009,0.009218647230800615,0.004621895233853905,0.0045967519969467106
1206.0744367591394,0.047454454531864726,0.0044623105290175,0.042992144002847225
1227.193808852987,0.019008663336478986,0.005519946695895608,0.013488716640583376
1235.027508172668,0.26243704611932855,0.1735443000885656,0.08889274603076294
1306.4129555208717,0.00973989416098663,0.0044173619593251496,0.0053225322016614805
1320.8245818666394,0.0006429298474199481,3.610204037302962e-05,0.0006068278070469184
1325.1567972635276,0.019325102025197008,0.0014065594160135241,0.017918542609183484
1335.7369728370234,0.020364374219109516,0.002379901715335289,0.01798447250377423
1341.7233446067396,0.03039049176160699,0.0038734997207624886,0.026516992040844505
1368.620019460206,0.01879658102289395,0.013370183028480797,0.005426397994413153
1390.315884032631,0.039477349968667926,0.002988987013320937,0.036488362955346985
1402.284441886926,0.0036915316252410686,0.000515209418995619,0.0031763222062454496
1403.2199475188272,0.009812318028978605,0.0062022777994696935,0.0036100402295089103
1426.896813344473,0.004245084442498191,0.00043035081710437735,0.003814733625393814
1427.0947954859525,0.013477757450863846,0.0010745178062402628,0.012403239644623584
1441.124946650806,0.18284515155704395,0.12985491429024232,0.05299023726680163
1482.1322490570772,0.02833607753060987,6.439422367452003e-05,0.02827168330693535
1483.524405777615,0.035275875134624525,0.0002920158477412222,0.0349838592868833
1490.5002594040318,0.037419509314113295,0.0003237207010206179,0.03709578861309268
1492.2338024398955,0.037529075894848565,0.004175821974739486,0.03335325392010908
1504.404412909859,0.0030258338581963455,6.428800259450648e-05,0.002961545855601839
1507.1076363996542,0.005372338398944049,1.3776770676219053e-05,0.00535856162826783
1515.4451615370901,0.015861498352363924,0.002305560324269392,0.013555938028094534
1515.8280609648164,0.011017888224416274,0.0005181423588236159,0.010499745865592658
1681.8682857203767,0.052811896293585826,0.001841287351465025,0.0509706089421208
1691.4436380585394,0.12026022371671513,0.0011835246389395255,0.1190766990777756
1820.745802860471,0.01737582875807635,0.0006092610607084059,0.016766567697367944
1832.136295766283,0.037363886631090346,0.003411755417485992,0.03395213121360435
1856.7264924386172,0.022633819879118063,0.010089768470997499,0.012544051408120566
1879.7556062231247,0.4595664572894463,0.3728181864875834,0.08674827080186287
3069.8227675691605,0.8715805571629819,0.7913073784493188,0.08027317871366314
3070.9725493269575,0.9564728016485553,0.9082935974709571,0.04817920417759825
3104.844026393665,0.5824455618057316,0.5035629143585582,0.07888264744717347
3109.8771822061613,0.5143118790146759,0.46322921872800593,0.05108266028666994
3131.1787693661613,0.160111656887969,0.13687111091205353,0.02324054597591545
3137.4640938422285,0.37287765686598706,0.06960438594241243,0.30327327092357464
3140.0884353052934,0.3137010832062799,0.05491752044707014,0.2587835627592097
3146.48100224973,0.3091317503291561,0.0024790683263567355,0.3066526820027993
3149.16900595579,0.2814020638659007,0.0004463907821018103,0.28095567308379893
3167.277463515518,0.06460369594736706,0.016249789335663574,0.048353906611703495
3169.822219624271,0.07387725826131966,0.017775342582096194,0.05610191567922347
3204.6751192139777,0.2693625154209006,0.0004367874749560211,0.2689257279459446
3218.507457634397,0.5853661446870274,0.1268854895505587,0.45848065513646874
3230.7944328540925,0.14893186584651233,0.002141393868243392,0.14679047197826894
3234.652178931473,1.4082246897721795,1.1500835788519852,0.2581411109201944
