frequency_cm1,total_intensity,isotropic_intensity,anisotropic_intensity
1.793543281303421e-05,0.0,0.0,0.0
1.7153769213798563e-05,0.0,0.0,0.0
2.0515237110802857e-05,0.0,0.0,0.0
0.7469220442717286,0.0,0.0,0.0
0.8154853757011162,0.0,0.0,0.0
1.0421603845456302,0.0,0.0,0.0
23.581060107892778,0.014068867000749455,3.4618291717361814e-05,0.014034248709032093
28.229480399546095,0.012719542671880173,6.218321970226636e-05,0.012657359452177906
33.816600222768884,0.009157536832116732,7.982611078246431e-06,0.009149554221038485
42.28568579630913,0.022237647450949444,3.239072883343402e-05,0.02220525672211601
50.106801217137686,0.02035002406414026,4.387750356784991e-05,0.020306146560572412
54.305566746370765,0.004649146629331572,1.1447268740530225e-05,0.004637699360591042
59.34582793822844,0.020105874350750508,0.00013794348359256656,0.01996793086715794
62.5107499948402,0.022806455052571194,5.637603241827658e-05,0.022750079020152917
74.4295039145596,0.016402020847784315,0.00026484343304815605,0.016137177414736158
89.05397470355737,0.00552043054309894,1.8099058942752823e-05,0.0055023314841561866
91.69140968143412,0.0025530854085486247,0.0007744025885206634,0.001778682820027961
114.70656519614364,0.007500308584514646,0.00012024964415293197,0.007380058940361714
155.59509303894,0.006923080849276466,0.002735646867818951,0.004187433981457515
167.1259378576638,0.0016009454378469292,0.0004890405654765702,0.0011119048723703588
191.37410402982377,0.005836838789881523,0.0001927041653279351,0.005644134624553587
219.02759126684882,0.0029348393559167456,0.0013574615689488432,0.0015773777869679021
224.31295781478806,0.011125758966355275,0.0013896248210580526,0.009736134145297223
233.71537864623932,0.016325331793209455,0.010315411715510056,0.0060099200776994
252.64544007306347,0.05140500082622851,0.048563045837989816,0.0028419549882386925
256.89180208505996,0.021082707456593467,0.01517887586662581,0.005903831589967656
272.6523958037415,0.005956507314362978,0.00017284876459583656,0.005783658549767141
279.31473069448936,0.002637538901648664,0.00022758836720579922,0.002409950534442865
308.49166772213215,0.01367409804369905,2.4763182236241507e-06,0.013671621725475426
322.992769054223,0.00853991113594504,0.00013825735922156883,0.008401653776723472
361.2919843645449,0.0042505235882481845,0.000986960665561796,0.0032635629226863885
411.4780147032451,0.00037721313257593,3.160007880350288e-05,0.0003456130537724271
413.57032339137356,0.00014185322737078537,6.62317292406263e-05,7.562149813015907e-05
417.7406953247004,0.0005677532836194187,1.085733325630379e-06,0.0005666675502937883
432.157063616004,0.005536659403465844,0.00010932324839401373,0.005427336155071831
458.6185433501692,0.004627285974997941,0.0038889100770767514,0.0007383758979211895
470.73568353600626,0.003575586937821994,0.0024287563918820657,0.0011468305459399284
484.8445416872918,0.003588244757835627,0.002646730046500043,0.0009415147113355844
530.2558386192379,0.010528791872564659,0.006420887527600684,0.004107904344963975
536.5113027620441,0.002150917902039337,4.9757174807760706e-05,0.002101160727231576
546.8526817015879,0.022475586012305857,0.012957929172322493,0.009517656839983363
603.3300674212812,0.02278967525324173,0.011582095518302669,0.01120757973493906
634.2912204994059,0.0163205478419941,7.351317222504756e-05,0.016247034669769053
635.4888851514304,0.024479869853417692,5.63616756052984e-07,0.024479306236661637
637.2773641350745,0.013017054965403745,0.0003097181075164729,0.012707336857887271
703.3308507836059,0.07167205651721212,0.06852438305097747,0.0031476734662346535
719.2455903772288,0.0008982368879550959,1.5907356510077538e-05,0.0008823295314450184
720.844282257029,0.001444518439409573,1.4754092695904063e-05,0.001429764346713669
725.3184979102092,0.0007679695642745738,1.5061836300665486e-06,0.0007664633806445072
734.0512062176286,0.03563970250970928,0.002713968871380632,0.032925733638328646
736.6781668535997,0.025978196316712093,0.001981594411226005,0.023996601905486088
754.7965892890849,0.024176934763462346,0.009568713068558617,0.014608221694903731
775.4965447250182,0.007384206478441978,0.00560511167185888,0.0017790948065830982
778.3694936577812,0.004107438582487947,5.580363631677096e-05,0.004051634946171176
781.4238883066653,0.0029007861856487826,0.0005871644213951762,0.0023136217642536062
796.218335941781,0.007358134453303622,0.0022424252997644565,0.005115709153539165
817.6030204697066,0.013703809862243132,0.009036956435790519,0.004666853426452612
874.8555250834538,0.0027309635625224057,4.1899478423909676e-06,0.002726773614680015
878.9872526189959,0.00818766595004202,0.0015822665158335006,0.006605399434208519
882.7891760856074,0.00644044527147512,0.002268605480002136,0.004171839791472984
884.7482365548371,0.0033599431952633482,1.617066763418031e-06,0.0033583261284999303
936.3027258634748,0.033323840499409424,0.014861901329702786,0.018461939169706634
960.7341410057559,0.005313469685657338,0.00031390679923636164,0.004999562886420976
964.1325897446096,0.005608414976400873,0.001976757633029399,0.0036316573433714744
971.1061775227339,0.010579298856118092,0.004277389409749164,0.0063019094463689284
1013.0732756226301,0.0005167474596825917,5.756431072354235e-05,0.00045918314895904936
1016.8271991194838,0.0020196593998500676,0.0012625241951688035,0.000757135204681264
1021.8902721853359,0.029548680985744837,0.026954173174832244,0.0025945078109125947
1027.1543853579042,0.3886227633303331,0.3757561784689881,0.012866584861344933
1028.8890076427804,0.13041090473769001,0.09423008728362021,0.036180817454069786
1029.7411021365758,0.058348280335209425,0.009730080740121686,0.04861819959508774
1033.911088275874,0.000937835131422964,0.0005752824018573764,0.00036255272956558767
1034.1450512257845,0.0024750690176059543,0.0018001063357625038,0.0006749626818434506
1042.2634542565772,0.0091195560651049,0.006955719107689393,0.002163836957415507
1049.8256517733096,0.012479470933339827,0.0055166598836669765,0.00696281104967285
1050.263060033528,0.008445747152987392,0.0001670175368447448,0.008278729616142648
1062.8230074185324,0.5099733658853379,0.49066766326362193,0.019305702621716034
1063.4245298376488,0.057872558378796145,0.007326258747504138,0.05054629963129201
1066.13778618201,0.20190320468902995,0.15723742037647148,0.04466578431255845
1111.9567607629456,0.021994550694193093,0.013382883411541778,0.008611667282651315
1113.3340392718862,0.00970596725476286,0.006606821964563941,0.003099145290198919
1114.948886271421,0.005471627995428182,0.0002806190884913696,0.0051910089069368125
1121.4027318607655,0.004110163522307482,0.0014163045132291054,0.0026938590090783763
1130.5235242436431,0.14051127927846097,0.1345475876241952,0.00596369165426578
1137.165778260805,0.15963904857458228,0.1498092689624923,0.009829779612089985
1143.4281690633932,0.023498743056647977,0.009652950090065835,0.013845792966582142
1145.4724060459337,0.0406176464059035,0.007455443506950014,0.03316220289895348
1177.719464495048,0.01627776401090061,0.00026961469081369645,0.016008149320086915
1178.169421600121,0.016836446140373305,0.0016071798072028983,0.015229266333170406
1179.60809378711,0.024277844071171756,7.609778094579846e-06,0.024270234293077175
1194.2047368845376,0.015019259348854905,0.010272371870842921,0.004746887478011984
1211.9910191436607,0.013900563616369706,3.481820048445727e-05,0.013865745415885249
1212.8637342946192,0.02694059984773012,0.00026490411660058563,0.026675695731129535
1216.313030925221,0.013601148064197755,0.004757185355011075,0.00884396270918668
1224.8106735502188,0.0203786881432493,0.00864687506219648,0.011731813081052818
1292.5771092164234,0.0053523241104061125,0.0011982301134539153,0.004154093996952197
1301.6966381331274,0.00685668762134137,4.6182127121089195e-09,0.006856683003128658
1305.1219161795898,0.008094841794731836,0.0029487161955400842,0.005146125599191752
1311.1475592925478,0.02100193850753495,9.410858934610869e-05,0.02090782991818884
1335.685941656459,0.0125538566988717,0.0002694762957083232,0.012284380403163377
1358.1967916953067,0.005516191338221746,0.002938767065001246,0.0025774242732205
1360.0057159461296,0.003730360794169778,0.00024977050188474726,0.003480590292285031
1373.803475493626,0.003811995881295977,0.0005218495787676567,0.0032901463025283204
1392.0909667520195,0.00609554748949262,0.0033183813397629786,0.002777166149729641
1397.5081326360803,0.030415985443041908,0.013763303552491632,0.016652681890550275
1422.3681916404555,0.02940448744069616,0.009817693380303407,0.01958679406039275
1477.5398859729128,0.016890113693485163,0.0035183304896584805,0.013371783203826683
1478.211813901934,0.03375197205441464,0.0020121052154925554,0.03173986683892208
1483.3527637929565,0.0039600087717302605,0.00033199383590626054,0.0036280149358239996
1484.1319594658073,0.007163444708363644,0.0017559029654129988,0.0054075417429506455
1489.0733593300993,0.04411080626742451,0.00013171693076637395,0.04397908933665814
1499.9080706946604,0.019736968510173876,0.004054194180915466,0.01568277432925841
1503.5106920879311,0.015114476225583606,0.004064978990276163,0.011049497235307444
1506.553627669274,0.022781147294282343,0.011038130758552039,0.011743016535730304
1534.9901813051317,0.018391699270958566,0.002316153713409874,0.01607554555754869
1536.3745518158464,0.011670356091339614,3.541025336052297e-05,0.011634945837979091
1540.4191030367099,0.017668194721783857,0.0002533966251533179,0.01741479809663054
1649.2991942594288,0.05840151873102257,0.007507026504462615,0.05089449222655995
1651.835721890153,0.07998179842501647,0.0026430699226549516,0.07733872850236152
1654.9009268281832,0.08861115592900262,0.008619812893055566,0.07999134303594706
1659.247255080694,0.11683814098562753,0.04347290730545838,0.07336523368016916
1667.1085744000525,0.06695309557724627,0.021439621681247287,0.04551347389599898
1667.9748334357294,0.08611918621457604,0.008812674003399386,0.07730651221117665
1677.9361298361732,0.05711342032986669,0.0004306855391047725,0.05668273479076191
3035.199240230298,0.9548073977888951,0.8032341694778329,0.15157322831106224
3060.35742561673,1.0903845261622709,0.9118089088678962,0.17857561729437474
3082.708241367057,0.9111750886236357,0.74808173483527,0.16309335378836579
3098.525778587026,0.41662814193515657,0.043100454835260336,0.37352768709989626
3121.6757258760645,0.3470884870601194,0.01331144465361134,0.3337770424065081
3123.976855697399,0.5705204612020286,0.09172910513140249,0.4787913560706261
3133.5758620305737,0.40109338967309754,1.4635198261561341e-05,0.401078754474836
3154.262416858172,0.04433415801535649,0.014376057292596002,0.029958100722760492
3188.0188716038842,0.09608055241973953,0.02727477016593848,0.06880578225380106
3189.313437067025,0.17161040974277733,0.020172214582816046,0.1514381951599613
3192.948025544557,0.2244999388189317,0.009373089391166168,0.21512684942776555
3195.9296917797865,0.2981839993727448,0.0008587778937597649,0.29732522147898505
3196.5907786070975,0.3008407473159501,0.0012784033154129403,0.29956234400053716
3202.8471141663367,0.5272312254732366,9.838336131134454e-05,0.5271328421119253
3204.9334293553957,0.3431271930818448,0.0007855875893510268,0.34234160549249376
3206.998376110048,0.34972864701386286,0.0004354808714406318,0.34929316614242223
3209.6257564274333,0.14895898552242995,0.008989277987074103,0.13996970753535584
3214.15109780393,0.14119660457265587,0.04274078606773879,0.09845581850491707
3215.8465904464256,0.16942920060023436,0.027662898645745497,0.14176630195448886
3217.390746955893,0.16294768679711585,0.10650077262083023,0.05644691417628564
3221.2837413028587,0.8080274322977248,0.41807222514705406,0.38995520715067067
3222.56265691429,0.9477148050359563,0.6902318528605851,0.25748295217537126
3223.10810370577,2.1541330236317617,1.9096261033276498,0.24450692030411172
