frequency_cm1,total_intensity,isotropic_intensity,anisotropic_intensity
2.6414724925160965e-06,0.0,0.0,0.0
1.9881772225858086e-05,0.0,0.0,0.0
2.1474651322710482e-05,0.0,0.0,0.0
0.5597899587234331,0.0,0.0,0.0
0.6602825022785307,0.0,0.0,0.0
3.5022382007008885,0.0,0.0,0.0
11.575822673884646,0.00018479153166319655,4.159274455713971e-08,0.00018474993891863943
20.225072494791814,0.00010390766317468117,9.477815339865821e-07,0.00010295988164069459
21.90983139928525,0.00020046196192307996,6.572757047985942e-08,0.0002003962343526001
30.49175172054896,0.0006453360573934011,1.3466496229891707e-08,0.0006453225908971712
46.525529023090854,0.0005427575482081084,2.5583531218781355e-07,0.0005425017128959206
55.041373349052996,0.0006258202771739642,1.920342767981479e-09,0.0006258183568311963
61.29367144461692,0.0002372482959241068,5.486939456566369e-07,0.00023669960197845015
71.3603127598197,2.2015398647184824e-05,5.094423547016936e-08,2.1964454411714656e-05
91.82923338972292,0.00010887576464065922,7.589128105602756e-07,0.00010811685183009895
103.18820712153939,0.00010463053248236536,1.307375470799219e-05,9.155677777437317e-05
112.61677733469408,0.00017403497678723025,3.3606592681780323e-06,0.00017067431751905223
120.69829538135511,8.71347811881629e-05,4.271710637472811e-06,8.28630705506901e-05
134.2887006175177,3.871273901594569e-05,6.45123469462675e-07,3.806761554648302e-05
140.57512928046643,0.010877991047841772,0.0066515491994302844,0.004226441848411488
142.10121412775507,0.010295416177994106,0.006457159940816164,0.0038382562371779413
161.72065880332474,5.714234028140157e-05,2.263008617089407e-05,3.45122541105075e-05
167.4310390327383,0.00112892788862978,0.0006805445351726714,0.00044838335345710853
169.8591636265377,4.496978645540293e-05,1.9148234749300582e-05,2.582155170610234e-05
226.45173883238138,0.0008448795802149881,0.0005921481515374008,0.0002527314286775873
246.24539691940103,2.0316842493266374e-05,2.0314965231004717e-07,2.0113692840956328e-05
246.45519613598734,1.1498721719384787e-05,1.2066016071793292e-07,1.1378061558666854e-05
265.88020046746846,0.0011619512031974426,0.0004994280035153859,0.0006625231996820567
290.30832873752985,0.0005672730192866639,9.690274505140404e-05,0.00047037027423525984
362.12090676963743,0.001973247068493346,0.0010334207221898613,0.0009398263463034849
384.0776362476043,0.003705315117004301,0.002741805164784293,0.0009635099522200081
416.08770050551306,0.0019477552785751697,0.0008990670766053831,0.0010486882019697867
465.8968402968479,0.00019339009946663994,7.749566177105716e-09,0.00019338234990046282
471.198692203744,0.0007479028921403982,0.0003517618215348978,0.00039614107060550037
478.548442995766,0.000990045670997052,0.0007389080877958317,0.0002511375832012203
518.8689708976557,0.0008670517940946925,0.0004226721196493361,0.0004443796744453565
690.0212408325195,0.004523409063234587,3.55869339064338e-05,0.004487822129328153
698.6646033561142,0.00038170273868770284,9.595161118201584e-06,0.0003721075775695013
728.1721728517739,6.546543154564045e-05,1.8948522808110258e-06,6.357057926482942e-05
729.9962184696301,0.00010894646652510048,9.399241332330163e-07,0.00010800654239186746
733.5451683100042,9.858602013101969e-05,1.3966986367921935e-06,9.71893214942275e-05
743.2202476292236,0.0004030979223365717,4.285252351498235e-06,0.00039881266998507346
763.2164492187252,5.816665566659592e-05,8.929344971214846e-08,5.807736221688377e-05
789.9321965576924,0.00014054536186320027,1.7774160652142274e-05,0.000122771201211058
825.4503176698344,0.00035436623280014494,4.913595928512954e-05,0.0003052302735150154
861.5943719828961,0.00022084160772748077,4.53821042937193e-06,0.00021630339729810885
880.5692479373763,0.005233861262266171,0.004679349630903981,0.0005545116313621898
908.3760944455246,0.032131635912386394,0.01976110189223517,0.012370534020151223
910.8910472391249,0.0009388312368037897,0.0003175850347158792,0.0006212462020879104
923.4999398480463,0.07287104751045947,0.049885070763078715,0.02298597674738076
958.3382786702073,0.0023194241394441156,0.0002415016392843998,0.0020779225001597156
986.6932860422512,0.0002052708559010705,6.488908041292962e-06,0.00019878194785977754
996.4903862568187,0.0016568472889559574,0.00023989953496618142,0.001416947753989776
1017.7006206387911,0.0016291161688145928,0.0014406438283529738,0.000188472340461619
1032.5341837900755,0.002168604539148618,5.396732981403603e-07,0.0021680648658504776
1038.1918902226334,0.0007274277308199624,9.545158812741808e-06,0.0007178825720072205
1047.1051950597289,0.0005051352041744963,0.00031806325424397054,0.00018707194993052579
1062.7831133154739,0.011467776976272201,0.00301859803421689,0.00844917894205531
1074.1030442474196,0.004858828113144365,3.0032797500758076e-05,0.004828795315643607
1075.2985058261277,0.03169662797598248,0.004740800121865285,0.026955827854117192
1081.2267003647748,0.03002773521901299,1.1584681352002624e-05,0.03001615053766099
1086.4682545170142,0.005968419177596376,0.002414576997748865,0.0035538421798475108
1090.312200570097,0.033828445729767766,0.0003536630589282564,0.03347478267083951
1091.662235350681,0.05353325624069974,0.01059157049321749,0.04294168574748225
1092.5594733274545,0.0076340589918105235,0.0017699938967871323,0.005864065095023391
1117.1625005676337,0.02643031474553789,0.013281367759853627,0.013148946985684265
1151.524784951026,0.13042568654551967,0.08838356416118236,0.04204212238433733
1157.1670298261358,0.1414629143088273,0.08439277554651219,0.05707013876231509
1164.0859982408133,0.006612322168643089,7.504760920379265e-05,0.006537274559439297
1208.3942485095747,0.005971048151519374,2.49040458660765e-06,0.005968557746932767
1224.9219338645407,0.00232557429334438,1.5487431760065982e-05,0.002310086861584314
1229.9754491593437,0.0029704054876485758,0.0008808234921422673,0.0020895819955063085
1241.124988175022,0.000941018993889792,1.0386394966916433e-06,0.0009399803543931004
1262.8572249390793,0.003796991039139857,0.0002722514103039191,0.003524739628835938
1271.400534506078,0.002481051624130028,5.2035299089456495e-08,0.0024809995888309382
1271.7884916421908,0.0026385561573911607,3.938513657033773e-06,0.002634617643734127
1290.5826551341725,0.0058807244216938104,5.322192987872389e-06,0.005875402228705938
1302.4016808062067,0.0011867406816482072,3.1895525746153466e-06,0.0011835511290735918
1304.5009647247934,0.0002671017253163216,3.106135644006919e-07,0.0002667911117519209
1320.9650839854455,0.05043793690069682,1.0728372515586968e-06,0.05043686406344526
1327.0356159370174,0.08434220840017516,1.187759739405148e-06,0.08434102064043575
1328.5043485752487,0.00098324563803703,4.27272779521596e-06,0.000978972910241814
1333.0403187080685,0.0353620606557759,1.571410870877609e-07,0.03536190351468881
1333.3799446896658,0.0025791355155749475,9.848157574056972e-05,0.0024806539398343776
1334.4498174151133,0.0008931415210007605,0.00015772539004427634,0.0007354161309564842
1337.1860174619526,0.0009373382293696948,1.074710701701018e-06,0.0009362635186679938
1337.9228591684632,0.0015944946753868527,1.0434734433657316e-06,0.001593451201943487
1348.2532909105457,0.0008580830718067324,1.7744219995006725e-06,0.0008563086498072317
1373.0450063080107,0.0031112097271150324,0.00044354520020321387,0.0026676645269118186
1394.4291944142208,0.002182803906351792,0.0006497797809124084,0.0015330241254393837
1404.0051496009307,0.001485195525992775,5.6948663771984376e-05,0.0014282468622207906
1412.2181817938656,0.0002778777157456212,4.9356660305449546e-06,0.0002729420497150762
1413.2275840126724,0.003684022997399939,0.0025298115639648877,0.0011542114334350513
1415.2182801902884,0.001494986925739202,0.0008890780659432055,0.0006059088597959965
1419.6487618409878,0.007959665132807724,0.001377207163959871,0.0065824579688478525
1421.470237704409,0.004434331331186385,0.00034178915324348556,0.004092542177942899
1422.814301465246,0.002011301727798406,1.0900736674346913e-05,0.002000400991124059
1445.9897305303186,0.0034648560914849512,2.1270828619524102e-05,0.0034435852628654272
1456.72272330828,0.028362863327422123,7.21556887782041e-05,0.028290707638643917
1480.7230665859777,6.507107202830659e-05,1.3145420393126357e-05,5.192565163518024e-05
1480.9759293544596,0.0010842307906723555,0.000505128143352114,0.0005791026473202416
1483.3035384422772,0.04901998870307584,0.000872156826571239,0.0481478318765046
1484.1825611180495,0.14057377597343282,0.007369806512925771,0.13320396946050705
1484.2184946483378,0.051385599905795554,0.004925851443867223,0.04645974846192833
1486.3326562481582,0.002867320376576363,3.680974982337993e-05,0.002830510626752983
1487.901236342239,0.04593810941691287,0.0025577669471308524,0.043380342469782014
1493.0581183738996,0.0017228643581139891,0.00018042485068168383,0.0015424395074323052
1493.7916449629886,0.02702712048512054,4.3872709032072907e-07,0.02702668175803022
1494.7445518148445,0.026798715128869225,1.6563704700496835e-07,0.02679854949182222
1496.701916058617,0.01169199307152345,0.00043178769371894843,0.011260205377804502
1498.747933333366,0.004280228896039376,0.00023625800069089695,0.004043970895348479
1503.528374024049,0.001044790203034942,0.0003740177358334613,0.0006707724672014807
1505.3893652878908,0.0032262498452854246,0.0005866068437773442,0.0026396430015080807
1506.2145208003953,0.001557332108996746,1.0960795180839723e-06,0.001556236029478662
1811.6419340958705,0.03645313282289213,0.01331832204962657,0.023134810773265558
3020.4647393255036,0.08613371829605557,0.084549789970812,0.0015839283252435609
3021.0891101437087,0.5904947254771682,0.5535534109591311,0.03694131451803702
3022.369272880777,0.005628843032201294,0.0009481691763346081,0.004680673855866686
3024.072389137585,0.11597103491267055,0.1151712015476178,0.0007998333650527452
3024.8271109323377,2.4920982873845072,2.4280915569228374,0.06400673046166971
3030.3963626838954,0.037019116646953856,0.029287626345366427,0.007731490301587433
3031.473345735366,0.017872301022777433,0.01053312447947878,0.007339176543298654
3036.4882661277557,1.7454395435602845,1.6938119391364492,0.05162760442383521
3037.0388992815383,0.015000748715632681,0.013872528620813594,0.0011282200948190871
3041.2069716162396,0.4134779811475206,0.3822856766030849,0.031192304544435726
3041.5338883957884,0.41948608870610604,0.38286062519936925,0.03662546350673679
3043.752963484723,1.2134673869834194,4.324534768524046e-05,1.213424141635734
3045.569819857996,0.0012416550277068996,2.2205109817040815e-05,0.0012194499178898588
3047.8259402395497,0.49863070665789566,0.00010880585486795069,0.4985219008030277
3049.551614266011,0.9216637765378525,0.9145988955817328,0.007064880956119723
3049.710553002307,0.9097439132041142,0.9022879858137441,0.007455927390370043
3050.367650883151,0.13966099333707258,0.0003019743356312097,0.13935901900144138
3059.111312582347,0.007089384236806984,0.0035106430970455837,0.0035787411397614002
3060.4459994295116,0.03600221093294293,0.012066817939609483,0.023935392993333447
3062.8983360732086,0.04850912024837653,0.034372653533185485,0.014136466715191044
3064.0410975470554,0.5441748309082167,0.5184151066809007,0.02575972422731602
3066.9146636388095,0.38290849421455225,0.005531722999926921,0.3773767712146253
3071.46671274643,0.03572938383214543,0.00037526648362688444,0.035354117348518545
3077.2387382240395,0.16328557119213596,0.00037797206048832915,0.16290759913164762
3080.4450069788936,0.056940590095569156,0.00012454113435039375,0.056816048961218765
3088.0228291487656,0.014770162198097955,8.193594879750079e-05,0.014688226249300454
3105.242975888979,0.006538496983661362,0.0017657263429936402,0.004772770640667722
3106.2787255687826,0.11656972477485399,0.0002940328016190871,0.1162756919732349
3112.66751773651,0.13033768946709479,4.0022972556494444e-07,0.13033728923736923
3112.7266721253177,0.08827496649468528,0.0002570141735123113,0.08801795232117296
3120.836659197573,0.4104339795188136,0.06304318530839408,0.3473907942104195
3121.698432415614,0.40973086755888616,0.06528828048296258,0.34444258707592357
