frequency_cm1,total_intensity,isotropic_intensity,anisotropic_intensity
15.523010701661518,0.002082833808622279,1.6018603671897306e-05,0.002066815204950382
1.0085325176364976,0.0,0.0,0.0
4.319416297357036e-06,0.0,0.0,0.0
2.332181783458817e-05,0.0,0.0,0.0
2.4949967877948416e-05,0.0,0.0,0.0
0.8555761145865513,0.0,0.0,0.0
1.36493940038971,0.0,0.0,0.0
11.583198604215555,0.018020951569874214,2.51298579992812e-05,0.017995821711874933
52.2848622120401,0.021292190813163126,0.0007801607069834132,0.02051203010617971
77.30480728036652,0.0197122843792342,1.6834079107051979e-06,0.019710600971323496
86.0202067733915,0.005462357801834538,9.933189241759346e-06,0.005452424612592779
97.33112574374233,0.016058817541028062,0.0010138308775263,0.015044986663501764
102.02812659683596,0.002199932467405055,2.555492399087582e-06,0.0021973769750059675
142.00233210512377,0.0006308404728760034,1.2467777918940955e-05,0.0006183726949570624
156.7766050676268,0.008464982958493015,8.24143003475141e-05,0.008382568658145502
165.43277902477814,0.0004976605398945896,7.797472838316513e-05,0.00041968581151142446
168.45214078516514,0.0023841058379325004,0.00029263774838540757,0.002091468089547093
187.5857880638833,0.005852777844836701,3.2853332666860156e-05,0.00581992451216984
208.98727205850565,0.002511357350140873,2.528303347279015e-05,0.002486074316668083
254.36285439475674,0.008731614728225272,0.002464992529017699,0.0062666221992075735
276.0601475649875,0.005370218199339323,4.666448420576854e-06,0.005365551750918746
299.3425775699655,0.007274422310496174,0.00018513687795067686,0.007089285432545497
350.94506218960936,0.004294907930915309,0.0002535490799701174,0.004041358850945192
355.26052795236444,0.006405294199135826,0.0010979191301214097,0.005307375069014416
390.6953990382405,0.00797733144356275,0.0009686366214349042,0.007008694822127846
391.6169987992843,0.03333216908899064,0.031289117848502926,0.0020430512404877197
439.629630372026,0.0007235043604862909,0.00011562517178831928,0.0006078791886979716
451.196554325804,0.0034810073952913035,0.000718452981855423,0.0027625544134358805
495.7207919051132,0.00363502247831315,0.0007996848078521338,0.002835337670461016
516.0472088035649,0.03025264684973987,0.01504698405512141,0.015205662794618461
578.0515981972642,0.004423513162689631,9.029434292671127e-06,0.00441448372839696
580.6350223734481,0.006130840178258249,4.4137967595659124e-07,0.006130398798582292
635.2588533859606,0.019293687489061916,3.081310115602373e-06,0.019290606178946314
679.6558057443119,0.027287666310209124,0.02087307787701875,0.006414588433190373
693.9503313150735,0.002409749989122688,9.068722665755766e-07,0.0024088431168561124
724.8309918273616,0.001066276173849645,1.1918791470266711e-09,0.001066274981970498
732.7841675081867,0.0009572093573483696,2.6500049978927284e-05,0.0009307093073694423
772.07267430306,0.03478824959338972,0.03383341975253134,0.0009548298408583796
778.763175946248,0.0026858235007602123,4.209487499827165e-05,0.0026437286257619407
799.5981858838695,0.013622609013403834,0.006171996528019699,0.007450612485384136
830.8981517235997,0.0011219882727391153,6.255722485722853e-05,0.0010594310478818868
834.5337954417295,0.009134550967046828,0.0024752560821952353,0.006659294884851593
848.4258561558834,0.01631726874842512,3.66102182952975e-05,0.016280658530129822
852.3277614639882,0.03734357274511037,0.033904339676468255,0.0034392330686421092
915.7937193598499,0.0007995845770604665,8.655633575078338e-06,0.0007909289434853881
923.9509228352505,0.006653175872761833,0.005327138942685315,0.0013260369300765185
999.9184053645462,0.0016709582167773141,0.00021239169722538838,0.0014585665195519257
1002.6454561600589,0.0037592354849633313,0.002641984076109684,0.001117251408853647
1012.1574089796937,0.031007725801191093,0.00018157003506730337,0.03082615576612379
1013.3476628620871,0.03578832610045282,0.002880058580750808,0.032908267519702016
1030.949307393855,0.0007119759481823187,0.00042155988600469025,0.00029041606217762844
1031.9013962913132,0.0016501110503912048,0.001010151972745016,0.0006399590776461888
1039.3212800174556,0.026452412004754237,3.993798740971194e-06,0.026448418206013267
1088.0181032481469,0.3249110439408489,0.2993292030500549,0.025581840890793992
1094.7256795711319,0.030523665897248864,0.0013252651352498848,0.02919840076199898
1120.8849356870141,0.025849316893464334,0.02270654248253895,0.003142774410925386
1138.4546445735361,0.011599278626927405,4.888713524344423e-07,0.01159878975557497
1174.5772522313985,0.03196858344806245,0.02776927646992861,0.004199306978133842
1175.1671080732565,0.039374414551233965,0.0356537683983052,0.003720646152928768
1179.1286940197433,0.0030517882629317646,0.001027974711207097,0.002023813551724668
1179.470319649511,0.004574235147111307,0.0004412067737169663,0.004133028373394341
1182.9142075035684,0.03692460611707278,0.0001029882192272897,0.03682161789784549
1184.8879956555652,0.06541971362662802,9.659104305513675e-05,0.06532312258357288
1220.321437912625,0.004060361722415599,2.563096266037743e-06,0.0040577986261495615
1220.8323919584964,0.0025271822820333184,5.5411352929673905e-05,0.0024717709291036446
1282.5562519544742,0.049481851796612006,0.04814424023195493,0.0013376115646570755
1290.66728356139,0.19098141100794588,0.14584617487680335,0.04513523613114253
1293.3715762076706,0.04535139771447199,0.010556680063004545,0.034794717651467445
1313.5508553095192,0.0025226404078222725,4.3285885865919834e-05,0.0024793545219563527
1318.2418536042692,0.029221534600693273,0.003831803544671246,0.025389731056022026
1323.5278231961372,0.05005896373877459,0.00011679215184273007,0.04994217158693186
1338.195500757752,0.12939690219842506,0.10330751765414864,0.02608938454427643
1475.4283856573209,0.016252941665264063,0.0009058832001268583,0.015347058465137203
1475.80101694913,0.03730910649608543,0.00015324919259636284,0.03715585730348907
1476.3579619267775,0.009690100224826578,0.003376481303379302,0.006313618921447276
1476.7481308705578,0.013863309223854101,0.004831504381269705,0.009031804842584396
1488.0670400549907,0.0036860821525706946,0.0028606283250844676,0.000825453827486227
1489.6345362237037,0.0019978202501583367,8.563726871653629e-06,0.001989256523286683
1490.1369442914038,0.02705908039458044,0.0008174627045140929,0.026241617690066346
1490.2189473211251,0.026639804064083256,0.0006182308954857364,0.02602157316859752
1533.238862958191,0.020254234700776665,7.0299889226222235e-06,0.020247204711854042
1555.5838950477903,0.025737501331142207,0.010255616942053026,0.015481884389089179
1651.3704176435024,0.12096495562686985,0.08017523374294597,0.04078972188392388
1655.455813949454,0.07639414857422067,0.0011239937317769344,0.07527015484244373
1677.7242613765993,0.14527884914508887,1.167253610901008e-05,0.14526717660897986
1680.2765533758231,0.41997677029687697,0.0022076238209223823,0.4177691464759546
1803.858952018025,0.45691522017291275,0.43639784042154706,0.020517379751365708
1811.4374474709996,0.11680377475385606,0.005124436758203059,0.111679337995653
3080.326859365291,0.3059597903738318,0.29666441365240065,0.009295376721431152
3080.476534776756,1.2393640440509561,1.2107818697442316,0.02858217430672449
3153.0624366737234,0.09354842332567731,2.7889628088446258e-06,0.09354563436286846
3153.33885745202,0.33454624318702075,0.00047543238833137994,0.3340708107986894
3186.378281342603,0.4428969732978224,0.06983407710248753,0.3730628961953349
3186.505524579214,0.4194021070431832,0.08925988141880355,0.33014222562437967
3197.83247762327,0.25852950936608804,0.000244399316265137,0.2582851100498229
3198.7214703640943,0.198988684508335,0.00010901470835011939,0.1988796697999849
3210.497668976008,0.27815877730917676,0.0017274433103032678,0.2764313339988735
3211.700079336185,0.46465729740530765,0.03484244553262638,0.42981485187268126
3222.1553114546355,0.6070055481064311,0.22316660829965784,0.38383893980677325
3222.6073040193037,1.577357630717188,1.279412912019845,0.29794471869734285
3245.0521923881474,0.7116099992501761,0.5162204481610796,0.1953895510890965
3247.1734173539953,0.6284069956937532,0.4415110722491755,0.18689592344457773
