frequency_cm1,total_intensity,isotropic_intensity,anisotropic_intensity
1.8532280894603184,0.0,0.0,0.0
1.697177207211535,0.0,0.0,0.0
1.542107385724842,0.0,0.0,0.0
2.8892241414593977e-05,0.0,0.0,0.0
1.3191005719185721e-05,0.0,0.0,0.0
2.823093767465679e-05,0.0,0.0,0.0
24.65674407901902,0.0011609531229724063,1.064744984512094e-05,0.0011503056731272854
27.924940095917027,0.0012980567625994568,2.95872441452764e-06,0.0012950980381849291
33.86113614066365,0.0009571022578879417,6.181408067924297e-06,0.0009509208498200175
50.70770141422405,0.0004425489919510029,2.5876434525370177e-06,0.00043996134849846587
67.6444030944034,9.548818441518197e-05,7.597284310381215e-06,8.789090010480075e-05
82.39984686320123,0.00021756509453192078,3.829884696448881e-07,0.0002171821060622759
91.12317224179765,0.00013037202121711993,6.66618981667811e-06,0.00012370583140044181
104.64725944781657,5.114419177839456e-05,1.4474712656237914e-05,3.6669479122156647e-05
128.28307956070518,4.7148476939323304e-05,2.2783321805595692e-05,2.4365155133727612e-05
139.01940834623693,0.0006003114667313636,0.000420468606324295,0.00017984286040706863
151.04582486681386,0.00010948319057834367,4.7267752644818383e-05,6.221543793352529e-05
155.3225394830886,0.00020901775929046493,5.76238058040013e-05,0.00015139395348646363
170.56961459729294,0.003697843022919809,0.002878503053709787,0.0008193399692100219
192.23454852695843,0.010242509662009958,0.007907219993623456,0.0023352896683865006
242.8961512429772,0.002857145670208187,0.0013457366900197153,0.0015114089801884715
245.79308132804002,0.0021996486966530224,0.0008130590641130997,0.0013865896325399227
246.28370197001618,0.00021116843820113274,7.795946847663708e-05,0.00013320896972449564
289.59356099920757,0.004654096299861128,0.0001272235309443715,0.004526872768916756
296.7807550736423,0.0037928684799188013,0.0017836116901641674,0.002009256789754634
305.99022540198615,0.006791046566307805,0.004590408690583171,0.0022006378757246335
385.4914403139168,0.006957297050600046,0.004335044698213338,0.0026222523523867073
408.8457104131578,0.0010632667924921448,7.094118620610134e-05,0.0009923256062860436
459.82482299310175,0.0012223010577567738,0.0006032815267803897,0.0006190195309763841
484.09248507774765,0.0031309317273512274,0.0018972789657416163,0.0012336527616096111
528.5424478871215,0.0028664274416152343,0.0003564669521012065,0.0025099604895140277
533.8340304219251,0.0031881904662522166,0.0011079762663638582,0.0020802141998883584
728.6306965247624,9.817476934468334e-05,2.9633056142597504e-05,6.854171320208583e-05
732.8742845968712,0.00022322274309608588,1.6932536422060525e-05,0.00020629020667402537
735.2225557494338,0.000568281229008234,0.00010228057025032521,0.00046600065875790884
752.0041810359625,0.00022129420898664562,1.943148059109201e-05,0.00020186272839555362
791.804662843895,0.0026793807424820523,0.0001275033808707998,0.0025518773616112524
795.9903367308183,0.0018822064221588998,0.0009967386526562566,0.0008854677695026432
855.6322139189273,0.004377223087943459,0.0034961460502684377,0.0008810770376750216
891.7277011256404,0.0038161763307360645,0.0007241912039870623,0.003091985126749002
908.7078832956247,0.03255113932733311,0.019736835908910313,0.012814303418422802
917.0357500986883,0.046810397225321446,0.031075576912880955,0.015734820312440487
936.095790632239,0.0018052297312234837,0.0012320594303099996,0.000573170300913484
978.3937978582534,0.0023817621961871476,0.0017192165176123791,0.0006625456785747686
1016.1736060191307,0.002088695136938579,0.0010176498981126017,0.0010710452388259773
1023.2510213670877,0.0043809078907984834,0.001918896645857845,0.002462011244940638
1025.7974648535642,0.004843300367403079,3.237549222346416e-05,0.004810924875179615
1043.9674910206395,0.0038261706819610513,0.0009699646985219599,0.002856205983439091
1056.939635588031,0.014340156622803924,0.005079111106655879,0.009261045516148045
1062.5018937151358,0.022442043467026662,0.0024958712249786106,0.01994617224204805
1077.1640787162698,0.004626484059893255,0.0004022359959098202,0.004224248063983435
1085.2922351726684,0.033948095684524615,0.017228875246445535,0.016719220438079083
1088.4342389701712,0.003910128686939034,1.9703645737596262e-05,0.0038904250412014375
1091.3602617980353,0.056851220967536906,0.001202169005761352,0.05564905196177555
1098.5013329705519,0.03608864665909636,0.00011060352098535574,0.03597804313811101
1112.7040384028742,0.03206970884034491,0.017117597036208427,0.01495211180413648
1142.475139378462,0.09059994820914036,0.06844499560825261,0.022154952600887755
1157.7101598630063,0.08312835636539326,0.03426272997785046,0.04886562638754279
1187.8065715346754,0.016742110265656564,0.0027040061849439474,0.014038104080712618
1212.1888748189697,0.0042416110162557955,1.5336329516855923e-05,0.0042262746867389395
1231.018768174008,0.008197328686934315,0.002720506486024878,0.005476822200909437
1241.9247592092438,0.0018910074861981396,0.00025393889447729664,0.0016370685917208429
1251.78391826331,0.005472809496361984,0.0002786634634202026,0.005194146032941781
1270.0525673919765,0.006680348250398437,0.0025991587634497824,0.004081189486948655
1276.9995689597165,0.0033630872132045016,3.117070104936975e-05,0.003331916512155132
1286.2470992264393,0.001268507182306811,2.1012870465636673e-06,0.0012664058952602474
1298.1546664722339,0.01005022459812759,4.754846946040452e-05,0.010002676128667187
1318.351461540942,0.001557780071382763,0.0009715924926815896,0.0005861875787011734
1322.7193256288506,0.006434648496811128,0.0007620994954510179,0.005672549001360111
1324.2161680271497,0.004427298145186973,5.1316155797230546e-05,0.004375981989389743
1329.1201710485475,0.08000270838294747,0.00016627517201602945,0.07983643321093144
1335.6405806849882,0.0012050456838144509,9.796917682758918e-06,0.001195248766131692
1337.646530988074,0.009369811537693559,5.476269375747061e-05,0.009315048843936089
1340.261990667526,0.04392013943341024,0.0012652041613522866,0.04265493527205796
1355.0386107127708,0.01102842016996703,0.000809590605293567,0.010218829564673463
1363.301330093991,0.004275179523527099,0.0003710917206091131,0.0039040878029179857
1389.914334871972,0.009411692366978738,0.00036259564082553923,0.0090490967261532
1401.0390087780333,0.00686764186242791,0.00010352784667624685,0.006764114015751664
1409.195743363553,0.004550925720506624,0.0001445307234458252,0.004406394997060799
1412.8694619675869,0.0019661196578072268,0.0007575859338081201,0.0012085337239991067
1414.0241466868272,0.0014736667122509364,0.0007080543395274231,0.0007656123727235133
1418.4932469633277,0.002369512347258707,0.0001338815738836246,0.0022356307733750825
1421.3205578337968,0.008379993549238879,0.00012276020014996198,0.008257233349088917
1443.8997012891105,0.012194016746382421,0.00032986582861223854,0.011864150917770183
1473.9229319863493,0.018957468197408164,0.00348736617873167,0.015470102018676494
1481.2340597941197,0.001590858205135663,0.00023466821405206096,0.001356189991083602
1481.5878868981733,0.0060075179720344525,0.00039299196032237184,0.005614526011712081
1483.5698403124163,0.048565572255960594,0.0008322499409137881,0.0477333223150468
1484.8033481131065,0.13796567234985777,0.006727266866521708,0.13123840548333607
1485.9103901264184,0.0005461227906026699,9.950777602096238e-05,0.00044661501458170756
1490.452904150184,0.022182156000903685,0.0005838440628320055,0.021598311938071678
1491.222562098069,0.015919081822089308,6.227631206061097e-05,0.015856805510028698
1493.7639540988848,0.027326435007541408,3.9897053387542253e-08,0.02732639511048802
1494.6646414629383,0.025643221114057552,3.9654314206179904e-05,0.025603566799851374
1496.789762234257,0.001891128183024668,1.072233000144205e-05,0.001880405853023226
1502.6747460426607,0.0038028090619727836,4.913030880152747e-06,0.003797896031092631
1503.189523525943,0.0033008883245720013,2.465470964454841e-05,0.003276233614927453
1506.1492177601895,0.0008822422241387784,9.778350097859316e-05,0.0007844587231601852
2983.5103526748608,0.33319806485496567,0.20599299025869844,0.12720507459626723
3020.8794953904026,0.6240872386121741,0.5863398140365834,0.03774742457559063
3022.501361466524,0.026455209033707176,0.019707369002145425,0.006747840031561751
3023.3438729227582,0.6916348822295348,0.6667187135475903,0.024916168681944628
3026.730996026484,1.7008061513020638,1.6388971684469433,0.06190898285512045
3029.7193804458257,0.0705732160699938,0.046432350203480986,0.02414086586651281
3036.250283880114,0.256035526328839,0.22631774249662667,0.029717783832212352
3041.1296470499083,0.35169007051264584,0.317542362569915,0.034147707942730816
3042.4961487650103,0.27568725671908306,0.23879878909877209,0.03688846762031099
3044.439417574421,0.8790556640536082,1.2949321021950937e-05,0.8790427147325863
3047.1150452289885,0.5215972126683549,0.23172468241289843,0.2898725302554565
3049.9117594902887,0.9171010465879684,0.9091182857250716,0.007982760862896857
3050.229857047345,0.04005476812015574,0.010360495161350626,0.029694272958805112
3051.1051751693008,0.8533102511305215,0.8338279288715987,0.01948232225892277
3052.2015988281723,0.2147161669410803,0.1039403208801982,0.1107758460608821
3054.1232595519186,0.5810971900487726,0.5315432480785912,0.049553941970181405
3060.6677579910292,0.3795047943755522,0.1092956266726319,0.2702091677029203
3070.163906734363,0.0490278431014564,0.04745757057666678,0.0015702725247896223
3078.378914244926,0.15085387588163326,0.00010047365872723366,0.15075340222290604
3079.7132200780775,0.12837750593975544,0.03479082293542115,0.09358668300433429
3086.8923149131215,0.010512605690405102,0.005620132086699434,0.004892473603705669
3100.093004048274,0.1620593000693863,0.024164391509157494,0.1378949085602288
3102.217617848631,0.12618464070053517,0.015279798707205392,0.11090484199332978
3112.867731137167,0.12731938985041374,2.8272134804810626e-06,0.12731656263693325
3114.5428028032907,0.09923247585409521,7.389198733402801e-05,0.09915858386676119
3121.2518443137474,0.4135652191669992,0.06363776146563033,0.34992745770136885
3124.106597102179,0.40558518277631633,0.06786514413331397,0.3377200386430024
3876.926778752456,0.3424445867689041,0.23805837021248924,0.10438621655641483
