frequency_cm1,total_intensity,isotropic_intensity,anisotropic_intensity
3.0155898537773043,0.0,0.0,0.0
1.1164581805824342e-05,0.0,0.0,0.0
1.9680102149112734e-05,0.0,0.0,0.0
2.6921780862086538e-05,0.0,0.0,0.0
1.2689582598834805,0.0,0.0,0.0
1.4255474390334677,0.0,0.0,0.0
28.005274835762368,0.0027013557295369416,3.819599795041725e-08,0.002701317533538991
30.037265882865896,0.0011776941244242857,2.565628381891706e-06,0.0011751284960423941
38.170041805967166,0.004545987471509851,4.463563900105051e-05,0.0045013518325088
65.58086999227726,0.02332843228131144,6.736553444974072e-09,0.023328425544757996
76.01588786263949,0.003470661226249642,0.0005654384039621747,0.0029052228222874676
93.99874864830178,0.0015402267976056027,0.00022304133361519818,0.0013171854639904045
119.79117519173485,0.00018519913109544826,3.8349806537387175e-07,0.0001848156330300744
124.48058021494074,0.0009613623331822854,4.1332695903999767e-08,0.0009613210004863813
130.62471322052815,0.0024241320578911574,0.0001466855041140264,0.002277446553777131
138.339662086958,0.00906172642807769,2.3292628115370365e-07,0.009061493501796537
178.88791841685264,0.0012713949752866356,0.0011477118826355485,0.0001236830926510873
237.20350111082612,0.007630471628756413,0.006655365167058867,0.0009751064616975467
296.69157655533326,0.007400418357224476,0.001830380861473602,0.005570037495750874
297.05518784584933,0.017101006840665428,0.010118971270823859,0.006982035569841569
362.6627538532719,0.0014088662789490194,1.5715991706559315e-07,0.0014087091190319537
408.4991100103901,0.005414605431941321,0.003679912610811614,0.0017346928211297062
447.8779969551284,0.010440054317607469,0.0031122809522992198,0.00732777336530825
450.6976329119417,7.194719665731843e-05,1.2935566635330521e-07,7.181784099096513e-05
515.1141919069204,0.0008143536093485464,2.3696425836850222e-09,0.0008143512397059627
659.0849213780912,0.009530975828031484,0.006783482643877274,0.0027474931841542103
664.4411834872047,0.0074749485537099515,2.2015859936928498e-05,0.007452932693773023
729.5518467429921,0.0005240717274378349,1.474866839962494e-06,0.0005225968605978724
737.2473080775189,0.001155583682273711,0.0005115619403895758,0.0006440217418841352
765.0779913287964,0.0026532212303856263,1.0133668665680947e-09,0.0026532202170187597
792.2930992535466,0.0003874043611268118,1.7795154483876182e-06,0.0003856248456784242
877.2115794286149,0.0017252552773428145,1.029097989399813e-07,0.0017251523675438744
892.8019179822103,0.019277685774518424,0.010562150366036693,0.008715535408481733
933.2360787898202,0.010569101221966248,0.006853235370113177,0.0037158658518530703
946.636778366987,6.980422028673683e-05,1.958494404072501e-08,6.97846353426961e-05
963.3451567921912,0.004971178547717153,0.0036568707506576576,0.0013143077970594946
964.6030237109095,0.020203070631904116,3.1751894787596e-05,0.02017131873711652
981.3091429720673,0.04199412441877817,0.03295231722705827,0.009041807191719906
991.8550416548285,0.003668020870995046,3.9762080592681995e-07,0.0036676232501891195
1033.4145521522742,0.00489514715541646,0.004264710583032211,0.0006304365723842492
1036.9567748474624,0.003763831339577365,1.6361437058769539e-06,0.003762195195871488
1045.7006997078297,0.06788666694089196,0.03372113717352095,0.034165529767371014
1046.6400104242323,0.0023887662877990073,1.8092997068383568e-06,0.002386956988092169
1064.2071108763553,0.06343636669571152,0.04923024288649692,0.014206123809214601
1075.515814520494,0.02460306428818759,2.5607733057702974e-06,0.02460050351488182
1077.16270703722,0.01384074848103014,1.7520823825307175e-05,0.013823227657204833
1084.5356903714103,0.0006232353744576495,4.3916581105421877e-07,0.0006227962086465953
1107.2576307736215,0.03908460486325577,0.00026060874694904223,0.03882399611630673
1126.4959889938507,0.03322206047481665,9.757014975543531e-08,0.03322196290466689
1189.3179825735108,0.0358336969542056,0.022490803448828506,0.013342893505377096
1208.9881872131318,0.00037675160944467895,1.5737645358407211e-06,0.00037517784490883824
1210.9696952282604,0.03157095573794007,0.008401807517554498,0.02316914822038557
1251.7327844498564,0.0023938457548031786,0.00028105322453231903,0.0021127925302708594
1255.3815783231778,0.0003207993341653811,9.896324009099967e-08,0.0003207003709252901
1277.0086997812389,0.002487399594757999,2.6889177362236568e-09,0.002487396905840263
1294.1887643007933,0.05785960002779226,0.0018774362111322576,0.05598216381666
1315.7808710145823,0.0016775844801804262,1.7139511506390324e-07,0.0016774130850653623
1316.992156566372,0.03289491703564341,0.006442876665763803,0.026452040369879606
1324.08930424201,0.21412333082813784,0.08445111228680997,0.12967221854132785
1327.7688043825947,0.005413859709588846,1.7001502917849234e-05,0.005396858206670997
1329.4021979174363,0.011135861408261392,1.6959819937314495e-06,0.011134165426267661
1336.534892628189,0.02751713096814833,0.019756135680302076,0.0077609952878462535
1339.968501926167,0.00394662599221775,8.417767978786366e-07,0.003945784215419872
1346.7898541860138,0.044511674522229414,0.005164649442811369,0.03934702507941804
1388.3245939740234,0.0019556058120214098,7.874385919031924e-07,0.0019548183734295066
1391.447569460976,0.010533228342850906,0.0018461461035843333,0.008687082239266572
1413.767863714115,0.006885556072933448,6.850085855429798e-08,0.0068854875720748936
1416.1045620181935,0.0030225705648447183,5.055147033822374e-05,0.0029720190945064944
1453.3140141983552,0.0776394035828128,0.026032085607518938,0.05160731797529385
1453.337228767428,0.057465733243885236,0.018830688902199664,0.038635044341685576
1477.4265299930296,0.017851932868276833,3.553666074234905e-05,0.017816396207534484
1477.9973677409919,0.04154473945508914,0.008717090242289777,0.03282764921279936
1480.8385062445557,0.03514972080005024,0.005846798533549033,0.0293029222665012
1481.8192343046358,0.0851447569105432,4.126253230406893e-06,0.0851406306573128
1487.2172722373098,0.001354950971876747,7.656019535616831e-09,0.0013549433158572114
1488.0346731648751,0.002745336646262318,2.141621126766247e-05,0.0027239204349946556
1500.095338284647,0.004635270509235047,0.0005029770393049703,0.004132293469930076
1502.286954817195,0.00019273985736535746,1.2635637517765092e-09,0.00019273859380160567
1736.1762844482776,0.235627385048959,0.18393143156988745,0.051695953479071556
1736.3694809983388,0.22561562759458725,0.17597658034417774,0.04963904725040952
3025.839489354764,0.03186243381570725,9.788220108853277e-06,0.031852645595598396
3029.3252856348763,0.977789755324956,0.7741560756049902,0.2036336797199658
3030.219971155821,1.3645195302822102,1.3206155881323716,0.04390394214983863
3030.4524350689126,0.027763285578427555,0.0008421838457374654,0.02692110173269009
3032.4694925785006,1.1949973426901235,1.1626641928612618,0.032333149828861776
3033.5677840898284,0.13891415026698545,0.00036628144251853753,0.1385478688244669
3041.6392359466026,0.0277841757757134,4.875251097449474e-05,0.027735423264738907
3041.890608947187,0.004468233196734906,2.641707904672535e-05,0.004441816117688181
3056.5136380283816,0.32569216046037786,6.378874039918718e-07,0.32569152257297385
3061.4210160076263,1.1431188552650973,0.2520355449437348,0.8910833103213625
3066.7473100833217,0.23929557318643602,0.2355315169856992,0.003764056200736793
3067.8764995603797,0.0013445853811686827,0.0002984701139123587,0.001046115267256324
3083.339192876789,0.04938728792427292,0.0003022402575539488,0.04908504766671897
3083.77501303827,0.11308438308818525,0.02603718830819301,0.08704719477999225
3095.7662298832615,0.00014044861305840617,2.281111512009763e-06,0.00013816750154639642
3097.224465211834,0.030914533252312686,0.0074424204860281135,0.023472112766284574
3148.2534997004655,0.16925830794657792,0.04014594933628198,0.12911235861029594
3148.3371861059136,0.17156558283573345,0.044708294180203216,0.12685728865553023
3155.4295883536456,0.7831179305840108,0.6416011316851324,0.14151679889887833
3155.840930695951,0.809250581204658,0.6638757521263984,0.1453748290782596
3240.6640902488957,0.3796015292032531,0.058318344095906666,0.3212831851073464
3241.26452797806,0.3827437737407616,0.058732664743603655,0.3240111089971579
