frequency_cm1,total_intensity,isotropic_intensity,anisotropic_intensity
10.901877522446506,3.139560348411221e-05,4.595684993116859e-12,3.139559888842722e-05
2.2712345742157636,0.0,0.0,0.0
1.7222794047469623,0.0,0.0,0.0
7.4380588030690465e-06,0.0,0.0,0.0
1.2221952281688065e-05,0.0,0.0,0.0
3.1702907222218786e-05,0.0,0.0,0.0
0.9681576525885949,0.0,0.0,0.0
29.69005902085692,0.0010483283875154681,2.3245033871884199e-10,0.0010483281550651294
33.733809833290756,0.0023250383499960423,2.553067435384579e-05,0.0022995076756421964
40.32775758383182,0.0003353749927177679,5.381979155354735e-12,0.00033537498733578875
67.19565576477783,0.001139234505384069,2.1387188466325081e-13,0.0011392345051701972
81.92010053823508,0.0006577130770670582,1.8060648175225215e-10,0.0006577128964605765
85.01675680951658,0.00037870788245717585,0.00013132267594529923,0.00024738520651187664
100.36803414701455,0.00010448092216680894,2.0485233317859564e-12,0.0001044809201182856
120.36459378769885,0.0005280261695288266,2.8117370410926215e-11,0.0005280261414114562
149.08404084558185,0.00011214362501919207,1.6500095178270973e-09,0.00011214197500967424
151.2997436484348,0.0005426609214891305,4.6066119767357126e-05,0.0004965948017217733
153.53849450946151,0.0008833136839038902,7.260858408130874e-10,0.0008833129578180493
157.85049307953628,5.180455990094608e-05,1.8225465862980706e-09,5.180273735435978e-05
180.75649427128135,0.014727612642467712,0.012464083765549609,0.0022635288769181027
246.4855508854122,2.174633932798796e-05,6.667691785953494e-11,2.1746272651070102e-05
248.41201148168142,4.4449036658293e-05,4.504542325042115e-09,4.444453211596796e-05
261.24549858834973,0.003610955727755916,0.0019359916058897023,0.001674964121866214
308.3454161398425,0.004276419548705068,2.282064675782805e-06,0.004274137484029285
326.5027285033713,0.012501049743356706,0.006564234266787968,0.005936815476568739
409.9483031492018,0.004638036025854695,0.0027866950458699967,0.0018513409799846984
429.9507028694478,0.0017487355517679275,0.00025878695935143884,0.0014899485924164887
478.1620308615237,0.0005555505013458075,0.00023756760787194432,0.0003179828934738631
552.0930129920155,0.0005954402195892495,2.0621380937942626e-09,0.0005954381574511557
568.1543154080351,0.007464193584945128,0.00013105317099093932,0.007333140413954189
649.3738396504683,0.00213853005883674,0.00032840651729563574,0.0018101235415411043
729.6833072981278,6.863852538098092e-05,3.4790693929005548e-09,6.863504631158802e-05
738.9006239649468,3.0454200181651458e-05,3.3995290638943507e-09,3.0450800652587562e-05
745.223811659782,0.000470869968671388,6.476883940759611e-13,0.0004708699680236996
776.6806910252689,0.00038081406766307923,1.6978755599869362e-11,0.00038081405068432364
819.0261676026394,1.450056058289104e-06,1.9016324665119727e-09,1.448154425822592e-06
844.4958397315729,0.0003641171706092303,2.179665817509101e-08,0.0003640953739510552
865.6912542073203,0.030902651205556676,0.025661257419927495,0.005241393785629179
909.5828084781145,0.028168775269429097,0.016067699259552252,0.012101076009876846
923.4701908321068,0.056216146911713914,0.03996681146068151,0.016249335451032403
928.1576221900183,0.00019587137900070478,1.4472267261727162e-08,0.00019585690673344305
957.2265757519292,0.0003542255578754235,2.232135413226197e-09,0.00035422332574001024
1016.5407220246034,0.0002197294557717702,8.28510111351645e-09,0.00021972117067065668
1026.4809136511783,0.001143390773618511,0.00016252068751646946,0.0009808700861020415
1049.2419218079665,0.00501076609293575,0.0005939160326517366,0.004416850060284014
1058.2102102146275,0.03974603955428741,0.024302278095827128,0.015443761458460286
1073.3756413228195,0.00679045725539529,0.0009827691454579912,0.005807688109937299
1088.7174162966276,0.03736422158328187,2.1426858736454092e-05,0.037342794724545415
1091.761372831382,0.04078324369134263,0.0017315494328957114,0.03905169425844692
1098.629564019154,0.019096017742603617,0.004324905600741551,0.014771112141862068
1104.0811184909248,0.010422776550799527,8.917938912668935e-05,0.010333597161672838
1136.986269609795,0.0023557343773566637,1.3095946803124885e-08,0.0023557212814098605
1145.662956485819,0.1354161796530014,0.0963012981920673,0.03911488146093409
1153.2447482240914,0.014730339983950812,0.006218782734394198,0.008511557249556614
1183.5191317952078,0.0011386031023084677,1.892337398840985e-09,0.001138601209971069
1204.6577693204058,0.04011269215914834,0.011416414411182397,0.02869627774796594
1216.2520887038818,0.003779017922847979,6.70124275555927e-10,0.0037790172527237035
1252.3406239331198,0.004265175443262838,2.719787987196526e-12,0.00426517544054305
1252.6734206332662,0.00023788578808287903,1.1287368749557638e-05,0.0002265984193333214
1264.1181418991184,0.0025887557013157814,4.692297331998171e-10,0.002588755232086048
1294.5913736995115,0.0015099128847806565,0.00010929765953452577,0.0014006152252461308
1306.026439791674,0.00019470030811210526,1.266758564958607e-05,0.0001820327224625192
1306.4209625185451,0.0018608792005021392,2.0524363658113538e-11,0.0018608791799777755
1322.8288180472584,0.024068107209509085,8.137313351864579e-10,0.02406810639577775
1328.515916055591,0.06083954631484085,1.4043000626950933e-09,0.060839544910540784
1332.378410411069,0.02785973407794889,1.2757294566717863e-09,0.027859732802219435
1335.7955547213892,0.004035860183563589,1.4770941260828983e-10,0.004035860035854177
1340.4196516723127,0.003619992713499407,4.17106173971847e-09,0.003619988542437667
1355.9175285661318,0.001545136162585341,0.0009073549145863722,0.0006377812479989686
1389.852363612368,0.0053510100834061125,3.064330468477724e-05,0.005320366778721336
1395.484478418307,0.000604954751870026,0.00039589108497371496,0.00020906366689631102
1412.9466265804815,0.00043114171535516433,0.00020503712418301148,0.00022610459117215285
1416.0884069835984,0.0012777977995712246,0.0005437612904325131,0.0007340365091387114
1418.2328043561347,0.006488153430347251,0.001544859084705924,0.004943294345641327
1424.3544202097114,0.009157322583819457,0.0057085556343214085,0.0034487669494980477
1429.9857558840938,0.0024115230803336695,0.0009214417416633184,0.0014900813386703512
1453.9641795043642,0.013726733379176098,4.8389886123036425e-05,0.013678343493053061
1481.7828015167513,0.004131380461950934,0.0003357921419583349,0.003795588319992599
1482.5541318852386,0.06330420476838042,0.002335839407498729,0.06096836536088169
1484.9411097491115,0.059896098380347894,0.0029697123925966126,0.05692638598775128
1487.3113930999664,0.05809272112698261,0.002061994776555711,0.0560307263504269
1492.423660910487,0.005319137955898635,0.001108030112913097,0.0042111078429855385
1494.0120445012626,0.0008272437391598143,0.00026493504876283415,0.0005623086903969801
1494.125805591309,0.027185984449591364,8.571546317388327e-09,0.027185975878045048
1495.631755834152,0.027179011036186723,1.275587784391957e-09,0.02717900976059894
1501.8053873174165,0.007991469160750166,0.0004694558823777979,0.007522013278372368
1502.2466260238598,0.015445551550433902,7.132719654854612e-05,0.015374224353885356
1506.1987822568651,0.0021075318093011007,0.0006188844315665531,0.0014886473777345477
1512.6515817499305,0.0035043326801659203,0.0003739708546331029,0.0031303618255328174
1833.6656619802486,0.07594102119656695,0.034472405285958074,0.04146861591060887
3020.7533691907,0.11012426002592629,0.10811197094390518,0.0020122890820211173
3023.849688253866,1.351759772797444,1.2927915594769066,0.05896821332053735
3033.3197174372426,0.05025718154345583,0.04344302445930936,0.006814157084146469
3038.045423051943,0.4274366348632677,0.3871775740913382,0.040259060771929533
3042.2605004189777,0.5117013527049769,0.47094669124611804,0.040754661458858775
3044.9853434664847,0.41839958010134515,0.37649314568278763,0.04190643441855751
3045.278687646598,0.7630526794675819,7.903165580082902e-08,0.7630526004359262
3050.3512489491345,0.8381129469382392,0.8302272999327319,0.007885647005507337
3051.725754436399,0.017195034875351557,2.908273474438448e-08,0.017195005792616812
3054.1839309158427,0.6454204924044861,0.6381101843888763,0.0073103080156097615
3056.920144889459,1.515468595075839,1.5072010910148272,0.008267504061011947
3067.93108380202,0.21053693718506844,0.1984745137342526,0.012062423450815837
3069.116060725848,0.46635807919670536,6.694846365643135e-08,0.4663580122482417
3071.4074549397587,0.14407301755855528,1.5505081799605018e-06,0.14407146705037532
3072.6333105571966,0.25931182964407024,0.24926372629415902,0.010048103349911236
3083.1638222327197,0.026635952270783456,8.654144589865035e-08,0.026635865729337557
3085.266470918367,0.06450901783440385,8.772973732487775e-09,0.06450900906143012
3091.0312247645606,0.33173440116143504,8.459476730301414e-07,0.331733555213762
3113.256632888939,0.1554288126670926,5.374180062163274e-09,0.15542880729291253
3113.585025864592,0.0020015179572373965,5.250553203144807e-08,0.002001465451705365
3115.31045848779,0.02162737552515903,3.700252425241706e-09,0.021627371824906608
3122.0695172061546,0.13102849809411152,5.607953407678319e-09,0.1310284924861581
3122.082469253566,0.414533160777457,0.06533569028161296,0.34919747049584404
3128.1095666494775,0.38472657524730003,0.048996548137595505,0.3357300271097045
