frequency_cm1,total_intensity,isotropic_intensity,anisotropic_intensity
2.2896627228156783,0.0,0.0,0.0
0.6047601346948653,0.0,0.0,0.0
1.7528662066099537e-05,0.0,0.0,0.0
1.6023881189117746e-05,0.0,0.0,0.0
1.978342764859487e-05,0.0,0.0,0.0
1.1591842312461398,0.0,0.0,0.0
7.9241254601091695,0.0011444479899956228,2.3228270572804337e-05,0.0011212197194228185
12.751838341688998,0.0006374553539163498,5.267252750485461e-07,0.0006369286286413013
19.314673014854858,0.0013121337448612437,4.6417051337027524e-05,0.0012657166935242162
27.514655550692268,0.00046626155911312487,5.4010018539472454e-05,0.00041225154057365244
36.543355753420556,0.0008559944866590798,9.771670133506327e-06,0.0008462228165255735
53.864031344849,0.0013212622275468244,3.575030446109507e-05,0.0012855119230857294
56.10802809900881,0.0014719198277024816,6.014301809385259e-05,0.001411776809608629
73.99607383070746,0.0019468915026722726,0.00023664829158096172,0.0017102432110913108
91.80218381306501,0.0011401177608300673,0.00010641711031885997,0.0010337006505112074
100.70042961619639,0.00034905812294478897,8.690183421406888e-06,0.00034036793952338206
111.88419669443603,9.906197186199545e-05,1.2699958870191095e-08,9.904927190312527e-05
131.3047400365735,0.00038748972655602745,1.006812012396857e-05,0.0003774216064320589
145.14361350351365,0.0003380037111171104,1.3000397433206629e-05,0.0003250033136839038
162.4838331206545,0.0007161538391673186,1.6302158526183836e-05,0.0006998516806411347
171.0485386757903,0.0007387463349481216,7.551668914855522e-05,0.0006632296457995664
193.60153288077427,9.367619810314838e-05,1.120415794568317e-05,8.247204015746521e-05
204.76211812400533,8.392200858770326e-05,4.281503641719202e-06,7.964050494598406e-05
230.3754787605951,0.0038375722933419384,0.0033944626896871203,0.00044310960365481793
237.85413068282313,0.006001285727212618,0.005138910898116677,0.0008623748290959405
246.17189599018602,0.0034442231805338138,0.002831378178304271,0.0006128450022295428
257.0229762126716,0.002652754388247005,0.0022651924975089052,0.0003875618907380998
269.10978317531846,0.0013679001573282177,0.0009218116322570799,0.0004460885250711377
285.9893153269127,0.0010052905165654972,0.0006313197141364389,0.0003739708024290584
289.38314602997247,0.002203364671662835,0.0016324440426398166,0.0005709206290230182
302.9320151708384,0.0010113457376903865,0.00015223385343829995,0.0008591118842520867
344.1232107010149,0.003158146437921192,0.0019240235410012015,0.0012341228969199904
358.75933836971234,0.0014718960972082815,2.8586999570148942e-06,0.0014690373972512665
416.60728513121506,0.007704700926316299,0.004146912550039944,0.003557788376276355
447.16656168299,0.001857572226304328,6.965163283271316e-06,0.0018506070630210567
470.94581628557006,0.0022263665677075464,0.0009322888516798736,0.001294077716027673
499.6309714077816,0.0031093560507503473,2.9326419625258673e-06,0.0031064234087878214
523.550982018243,0.016925521062442765,0.011564987755497809,0.005360533306944957
532.8679275203201,0.006698872222752219,0.003758615499464293,0.002940256723287926
720.613131284343,0.003841279479354783,0.0010336209868372405,0.002807658492517542
724.0661623708133,0.005511563987589766,0.0027306858484801282,0.002780878139109637
732.9819361383535,0.0028703896285654034,0.0009434748731606483,0.001926914755404755
739.1658742635393,0.003941541568788594,0.0002440609939164782,0.0036974805748721156
756.5561469148646,0.010193072274641207,0.008813207372934189,0.001379864901707017
774.6446095637001,0.0011163854744614067,9.560093267160764e-05,0.001020784541789799
795.7993969959465,0.031904465701347105,0.030105950722898314,0.0017985149784487903
803.0461045961663,0.026526185567957036,0.0183774151463696,0.008148770421587436
819.0390289502062,0.015074150308876898,0.005547884296490192,0.009526266012386705
856.4838280723343,0.00972934383810442,0.007952507984704505,0.001776835853399915
868.1914518394137,0.021525710900393843,0.015069904686045606,0.006455806214348237
876.7449589192807,0.011016555067716136,0.0020654738340844855,0.00895108123363165
886.1005135982324,0.016995432111662503,0.0018918072290435403,0.015103624882618964
888.710006211232,0.0389771760098012,0.030868002281817655,0.00810917372798354
906.4264939312237,0.05788427912359222,0.046596514965966916,0.011287764157625299
926.0120669598954,0.007082932870485435,4.657711929151899e-05,0.0070363557511939154
944.5118388008882,0.0510655861261251,0.043367890446521916,0.007697695679603184
955.7103896280627,0.01610727012411121,0.00749039268583512,0.008616877438276091
963.3897537627821,0.011274104961818474,0.008024165354307332,0.003249939607511142
989.0475199236625,0.005876002458770751,0.0014005346062444318,0.00447546785252632
1008.8208767305146,0.012388794800382873,0.0012075082739823675,0.011181286526400505
1028.9946799036986,0.007285809030436538,0.0005391026056216065,0.006746706424814931
1032.1078780018381,0.00812778965470385,0.0006826299566964462,0.007445159698007404
1042.7991957450834,0.007912921089601068,8.403553273394447e-05,0.007828885556867123
1056.4580607542784,0.009706646676394629,0.0009512531303412467,0.008755393546053382
1068.6603736104921,0.01927645535166189,0.004729234201368812,0.014547221150293077
1076.3244260149054,0.0035082964727433967,3.69088006131989e-05,0.0034713876721301977
1091.4746645142236,0.030552690791641874,0.005246356018474604,0.02530633477316727
1092.7674555980502,0.007451066405843492,9.907376889622066e-05,0.007351992636947271
1103.352469140904,0.014935906157505452,0.0025915066884403945,0.012344399469065058
1107.7083971193454,0.04112268188252695,0.0007409463198769386,0.04038173556265001
1110.4953196707313,0.01934029223987736,0.00022569874361649136,0.01911459349626087
1121.805949586454,0.01505885405939408,7.88738912038958e-05,0.014979980168190184
1124.6563047286572,0.025867813496360238,0.00016384383708797806,0.02570396965927226
1127.0868591496462,0.003710350967235498,0.0005935891367807047,0.0031167618304547935
1158.4284666200738,0.011519681161952143,0.004460720560082956,0.007058960601869188
1162.5154339174458,0.02281757022827404,0.017110612086335766,0.005706958141938276
1174.9870155180477,0.005644842471079185,0.0002851529444145871,0.005359689526664598
1195.8748957285532,0.015777053222414118,0.006808909042390117,0.008968144180024
1209.3773903517235,0.006571208719962991,5.3296541792553905e-06,0.006565879065783736
1225.404984502623,0.009877825881262538,0.0002496572150316417,0.009628168666230896
1247.4111758112895,0.010534671191568744,0.0018673170489324918,0.008667354142636252
1262.8288331577726,0.00228729598463366,5.0774033159606095e-05,0.002236521951474054
1270.2343167162376,0.004976047741016168,0.0021229169826793353,0.002853130758336832
1276.497236077241,0.001727260407001933,0.0001856553416616438,0.001541605065340289
1288.886005290022,0.007846394150176995,0.0020252275092023466,0.005821166640974648
1295.9333264534432,0.0032666503320148673,0.001121531427212097,0.0021451189048027706
1305.0256847470266,0.02522440243531223,0.013782849590965996,0.011441552844346236
1315.707618795375,0.011098167352336423,0.002030422220258653,0.009067745132077771
1317.7104901340815,0.012232274834891794,0.0019343895258716467,0.010297885309020148
1321.555418386184,0.010649854198403138,0.00018509891771102606,0.010464755280692111
1327.9661190991183,0.00847094039049758,0.0002941521172555661,0.008176788273242015
1332.1215744187393,0.011251944918872873,0.0002596181870840277,0.010992326731788845
1333.8709508322745,0.005853117378355415,5.002683515063067e-06,0.0058481146948403525
1334.4501738479187,0.018061122688913772,0.0006629665972333343,0.01739815609168044
1337.3956423288037,0.2011982722439809,0.003138840455145608,0.19805943178883528
1346.6905573883128,0.00922521686641853,8.76831136863946e-06,0.00921644855504989
1349.0464241770621,0.010766563922403364,0.0005369601124309945,0.010229603809972369
1378.5844476445636,0.005567653018718108,1.9348557281060488e-06,0.0055657181629900025
1380.3103529339255,0.0037316277093638823,4.50624155304073e-05,0.003686565293833475
1383.6499648334473,0.002206008596112525,3.4065748570660015e-06,0.002202602021255459
1386.1661826090572,0.006500611989150806,0.0004185573052985285,0.006082054683852278
1391.6610217970792,0.0011241991301688228,8.033895631948211e-06,0.0011161652345368746
1392.4803856521037,0.0037577439971995473,0.0002407692177161452,0.0035169747794834023
1401.68280855684,0.005060475467049565,0.00038380002315894737,0.004676675443890618
1409.616374816297,0.0027834713379843983,0.00058557878387161,0.002197892554112788
1411.1071586052547,0.0002793370037709799,3.890264448539483e-06,0.0002754467393224404
1413.9017218047213,0.0017633679531773032,0.0001481135966392988,0.0016152543565380044
1415.1667766417183,0.011438584186708213,0.0024091902066247705,0.009029393980083443
1417.1601520732315,0.009394187195208807,3.5410631442085226e-05,0.009358776563766722
1418.6316800005013,0.005798781239213762,0.0019351681981818537,0.003863613041031908
1478.156147046881,0.060276321578724215,0.0011925694986910263,0.05908375208003319
1478.4452545376002,0.08166905038789762,3.87573294389389e-05,0.08163029305845869
1479.5475026488693,0.041795218906861546,1.1975207708676423e-05,0.04178324369915287
1481.3895524769914,0.009656647221661745,0.0005317497192374471,0.009124897502424298
1484.0398615824056,0.024099840237283093,0.00014673986376461108,0.02395310037351848
1485.5128616432373,0.009066278626141983,0.0017351571030011163,0.007331121523140867
1486.1761797564634,0.07491718570302272,0.00045409335689463605,0.07446309234612808
1488.5194632799146,0.034653671288689854,0.0007532016161596809,0.03390046967253017
1490.8318474534399,0.012304738658017966,0.0003926018249506046,0.011912136833067362
1491.38110317281,0.005811252383498726,2.3160514270084022e-05,0.005788091869228642
1491.6551050052874,0.02543886110769833,3.069834850474782e-05,0.02540816275919358
1492.6721920694022,0.022266651781714032,0.0008549276630924448,0.02141172411862159
1493.535528591741,0.0274893033099062,0.0001476619931906516,0.02734164131671555
1496.4793048337365,0.01019158198899599,7.902388575088145e-05,0.010112558103245108
1499.2278174477703,0.003910198429088185,4.3255893057879673e-05,0.003866942536030306
1499.5204205170508,0.0020134379076588915,2.6272146994485803e-05,0.0019871657606644055
1502.810425797262,0.005276130574217371,6.745943222191233e-06,0.00526938463099518
1503.8443650431896,0.01283184643260908,8.443654161054525e-06,0.012823402778448026
1505.4349425619303,0.008721799307867996,2.9766320907470108e-05,0.008692032986960526
1509.6120325842774,0.010126814144237413,2.3343637464529994e-05,0.010103470506772884
3025.6061807503042,0.6240690718944405,0.44446705534166203,0.1796020165527785
3025.9983539647737,0.08541376057365331,0.0035260031819559544,0.08188775739169736
3029.034905473999,1.0360181346131232,0.9275913856372138,0.10842674897590951
3030.2002120171383,0.3808523824554467,0.2565034576169226,0.12434892483852414
3031.2252130613147,0.20491255611127424,0.06487193330750331,0.14004062280377094
3033.0582674448597,0.07680125337362365,0.005438674661930072,0.07136257871169358
3033.602518265379,0.28529130436304767,0.11936922965902697,0.1659220747040207
3033.858630219706,0.2873725619023624,0.005663563424210227,0.2817089984781522
3036.956305769563,0.32666335185515905,0.27849477265767025,0.04816857919748882
3038.1439265342924,0.7825199084684005,0.6746561364768529,0.10786377199154765
3040.288078847735,0.9141008410747804,0.7278549009653272,0.18624594010945317
3045.408609143082,0.1057873227320666,0.007354706594970243,0.09843261613709636
3046.0824284033183,0.0858456552221099,0.008679354928086365,0.07716630029402355
3046.894851478127,0.6750414867452922,0.4986642941692597,0.1763771925760325
3048.775454590508,1.8166195085073418,1.7812246717724494,0.035394836734892327
3049.5050674121535,1.3502676407763892,1.3355335544586098,0.01473408631777946
3049.7723281004655,0.7005399914767291,0.5987355918334644,0.10180439964326471
3052.539775806827,1.073088916043514,1.0387492414631894,0.03433967458032455
3055.7811257697194,0.426743899156893,0.0006123492737896438,0.4261315498831033
3059.690801760025,0.7672962076902202,0.1547146155738032,0.612581592116417
3061.9694717974003,0.382605223097086,0.04327659676527951,0.3393286263318065
3065.776412629638,0.5805389722814961,0.19137338474385454,0.3891655875376415
3066.8142174034315,0.46078623419278025,0.2252114878228864,0.23557474636989384
3068.1262102739056,0.07384158209839096,0.00515209814394443,0.06868948395444653
3069.823571782666,0.1683279331966103,0.04204824373747485,0.12627968945913545
3075.267165343656,0.414800856454864,0.24441722937171337,0.17038362708315058
3076.9857935539317,0.22445713263805728,0.005326804371055763,0.21913032826700152
3079.316612689274,0.16827986292610517,0.08138651243550767,0.0868933504905975
3084.0637783213515,0.6149016322726037,0.3527760832942515,0.2621255489783523
3091.653120996157,0.03408677780527968,0.000163157255574615,0.03392362054970507
3093.194895068262,0.03530893509580684,1.4889134982595742e-06,0.035307446182308584
3093.8029983929546,0.0857850870348369,0.0008373632745021167,0.08494772376033477
3096.995062891213,0.1233440398778714,0.017954572058480483,0.10538946781939092
3097.1528768251756,0.1224979696020011,0.000736945942238968,0.12176102365976213
3115.4883482455434,0.053457254307901325,0.0005100176264083985,0.052947236681492926
3115.834269430005,0.26580053013241267,0.06521897845194466,0.20058155168046804
3121.503182154241,0.33461677148896984,0.06726228013654259,0.2673544913524272
3126.691595940848,0.21016690144282857,0.01662288872983419,0.19354401271299437
