frequency_cm1,total_intensity,isotropic_intensity,anisotropic_intensity
0.9338659107176991,0.0,0.0,0.0
1.895232279891925e-05,0.0,0.0,0.0
2.4842960722469793e-05,0.0,0.0,0.0
2.67235027921293e-05,0.0,0.0,0.0
0.7750049002180142,0.0,0.0,0.0
1.497029086199527,0.0,0.0,0.0
26.40827698085812,0.0035298473869535617,2.377719896537031e-05,0.0035060701879881914
29.803829399539875,0.0023477167225778683,5.2672888123343083e-05,0.002295043834454525
33.51437705964775,0.002346493472122809,0.0002725705302756169,0.002073922941847192
37.9406831602529,0.0059420965948120165,0.000178717635797284,0.005763378959014733
41.997941328425206,0.0038755621163580334,0.000141535766866407,0.0037340263494916263
47.36910184193273,0.005356724631335816,0.00035995596273745184,0.0049967686685983646
59.33098688748755,0.004000634464941725,0.00020423541939244716,0.0037963990455492777
65.16965847790036,0.0006975019596216986,9.720785823757394e-06,0.0006877811737979413
72.71879094811794,0.0018710113973853383,2.1559904811546347e-05,0.0018494514925737919
96.95489120331936,0.0013209555699159993,2.8768190313999095e-06,0.0013180787508845994
101.25966946075543,0.00037697907157979536,0.0001130096662801416,0.0002639694052996538
117.66119854196099,0.0019821364861824964,0.0003294949380124693,0.0016526415481700272
154.81317004929744,0.0010462222689128513,9.427623179118275e-05,0.0009519460371216684
164.8948995915597,0.0028315243629010176,0.0002536865669330998,0.002577837795967918
186.08142888315055,0.0010795787470574986,0.00024010548154155135,0.0008394732655159473
191.04409783320642,0.0008805636396598167,3.656979980502074e-05,0.0008439938398547959
205.49025950069938,0.0010928372123374171,0.0002898567435732775,0.0008029804687641396
225.72081157598822,0.005276890683970572,0.0035328220143093715,0.0017440686696612012
240.8836247752501,0.0021568516584820952,0.0013008179339203305,0.0008560337245617646
243.3464181943889,0.0009518371348657068,0.0003885862284085872,0.0005632509064571196
244.8732109420858,0.0009252605783691833,5.909689434629511e-06,0.0009193508889345538
266.46501115535415,0.00787486555843674,0.007378514662423842,0.0004963508960128979
289.2337425947026,0.002680267012835212,0.0007517824724031963,0.001928484540432016
340.9512744426805,0.0011430541151035232,0.0006997416179889051,0.00044331249711461804
348.7506923287935,0.0004981215512672974,2.3968605423898763e-05,0.00047415294584339854
364.0257640572366,0.0006590694599746759,9.26760509910138e-06,0.0006498018548755746
410.0277224426714,0.004896593383786168,0.0012567536518312192,0.0036398397319549487
465.7498021849197,0.0050874252186694936,0.0021840296256299056,0.0029033955930395884
479.06376935834027,0.0017144235710107834,0.0005812042785622249,0.0011332192924485584
484.9848624354985,0.006904160581374986,0.0055457400286036745,0.0013584205527713115
494.85861790494397,0.008317442772725368,0.0036724014141145418,0.004645041358610827
536.2449451089667,0.009405925726678465,0.0021469103240175785,0.007259015402660886
557.1577079022196,0.015053661249832788,0.000151080108344851,0.014902581141487936
575.2070325197262,0.002394504583341441,0.00030547449835946483,0.0020890300849819763
579.6667665181398,0.0018478352426668208,0.0006177243741760949,0.001230110868490726
584.253070534448,0.0008900251997054321,6.843715387668932e-08,0.0008899567625515554
586.9302421834957,0.0016648190664138199,0.00024307026123208058,0.0014217488051817392
595.1685159593148,0.005058111268266362,6.013284689174792e-05,0.004997978421374614
626.5984244142021,0.01499732899041717,0.0022375893261729627,0.012759739664244206
633.5139603001231,0.005807910287855236,0.003181197248960563,0.002626713038894673
647.2405859517245,0.00433486549220455,0.001159289392484417,0.0031755760997201326
807.5814755728464,0.006710664326582532,0.00021660093968658325,0.006494063386895949
819.2260013281041,0.023492157954089116,0.016075165730780695,0.007416992223308421
828.8574552664029,0.013457541502594183,0.0032851073086666484,0.010172434193927535
836.7557704520893,0.17348248324936394,0.16978214391933083,0.0037003393300331115
853.745378918849,0.03337629615105261,0.022916552543468034,0.010459743607584572
922.8071503508245,0.03886877298976231,0.018327214787129384,0.020541558202632926
938.7417042912109,0.01407470797782284,0.003635468314317479,0.010439239663505361
969.4685224215558,0.017958854302825025,0.013687923610742043,0.004270930692082983
1004.3007751980011,0.005659450547943942,0.001367263084216141,0.004292187463727801
1018.9046008355023,0.012295036290941348,0.0005768620979234034,0.011718174193017945
1020.3897971931615,0.008647744155211017,0.00137032216593271,0.007277421989278306
1027.4738369975603,0.014343275670747724,0.011888599548148913,0.0024546761225988116
1055.6405790772808,0.009560797691927244,0.0009265501287627276,0.008634247563164516
1060.5037588814114,0.001218450847583723,0.000633153839650224,0.0005852970079334992
1062.0894142238703,0.0029382506354409554,0.0010974086533086392,0.0018408419821323162
1063.5864289005074,0.00101034989063219,3.060051432208786e-05,0.000979749376310102
1065.3741331225024,0.0015426318136898503,0.00044788877437712375,0.0010947430393127265
1110.3958556625125,0.003729736519439781,5.79624760253755e-05,0.003671774043414406
1123.3587983317514,0.014016234187521022,0.006157860670727518,0.007858373516793504
1127.9120065256159,0.00936836259792619,0.0017431583660336024,0.007625204231892588
1139.6783538384936,0.007486915818979584,0.002796676749918457,0.004690239069061127
1179.2149610069393,0.011885310923122979,0.00329111045963278,0.008594200463490199
1201.188880809096,0.004269521810961108,0.00041747448467841235,0.003852047326282696
1231.3920800948656,0.010911651254357405,0.0013635772249071558,0.009548074029450248
1240.4711495610538,0.01862344828219579,0.00034725699337648035,0.01827619128881931
1246.9535328999918,0.010848279126800675,0.001902439900057892,0.008945839226742783
1258.5580388599285,0.011386102422544675,0.00012677026375154774,0.011259332158793127
1270.050167651553,0.00986353568157583,0.00038522437091499044,0.00947831131066084
1305.9311905495028,0.025171481849007266,0.0018331983729804097,0.023338283476026858
1323.0705931545954,0.0037937043042267624,0.0007956016299502979,0.0029981026742764644
1333.9955092738337,0.013541172881775115,0.0008777848482939977,0.012663388033481118
1363.8844764279847,0.010681122710980602,0.0007698164923893286,0.009911306218591273
1392.866889044388,0.00311078644189384,9.23591455144632e-05,0.003018427296379377
1398.678494226783,0.0036617506264095528,0.0019393158318776142,0.0017224347945319386
1400.5205371519912,0.002744194451599147,0.0002521684828863905,0.002492025968712757
1402.893588441775,0.002327058934226237,0.0014228830827517141,0.0009041758514745231
1406.6385847279812,0.0008853460813525548,9.949455749071929e-05,0.0007858515238618355
1413.01824587616,0.0026769541979946073,0.0001238265468678759,0.002553127651126731
1427.6049137755617,0.004170283265290731,0.0011824805269958357,0.002987802738294895
1441.7858988534,0.004358570606523636,0.00027585571682824757,0.004082714889695388
1465.739438264079,0.024735312711029748,0.0012634779270563141,0.023471834783973435
1469.9269161857692,0.017243433028069764,2.413169019451908e-06,0.017241019859050313
1474.3557529684786,0.023839527131806277,0.00011299039452354042,0.023726536737282738
1475.2127439856586,0.0206663365283696,1.2205134544884408e-05,0.020654131393824715
1476.6874720985418,0.025721910141598248,0.0003429486641221616,0.025378961477476085
1479.6978736422436,0.027618272315390536,1.8952487341393008e-06,0.027616377066656397
1479.8110222571847,0.024610145830819403,6.077326598534048e-07,0.02460953809815955
1484.6366067290612,0.018487656548638154,3.083704095285532e-05,0.0184568195076853
1506.1505490088512,0.012265005909890636,0.00025200455149308444,0.012013001358397552
1517.1500568629128,0.04980957519561521,0.025707401808382768,0.02410217338723245
1518.74434956911,0.013619436147166474,0.0016905723461267624,0.011928863801039712
1527.2540869411428,0.014201449928108055,1.186731730451544e-06,0.014200263196377605
1842.4413760085565,0.040845493280126884,0.01527011286872556,0.025575380411401324
1848.5268584501287,0.06119119688058817,2.0196671397936753e-05,0.06117100020919023
1849.1400003041292,0.07050357284864564,0.013053484049369924,0.05745008879927572
1854.5432951251237,0.23640533638410638,0.21673324401223523,0.019672092371871137
3049.727612386755,0.2699076026598267,0.2107708773169277,0.059136725342899044
3072.006942464377,0.6581048357495574,0.6372588115580551,0.020846024191502308
3073.779679839101,0.30290044439165936,0.23245396765532092,0.07044647673633843
3075.5932459600435,0.7810174332611619,0.7068272503769266,0.0741901828842353
3076.3019361403035,0.8777240815458414,0.8743723436892603,0.003351737856581076
3079.0140636918013,0.5025034559681185,0.47722018171875535,0.025283274249363184
3086.1950063529657,0.1636718059577048,0.0979314726053486,0.06574033335235621
3088.2314977249166,1.0620166975097993,0.998459980082668,0.06355671742713125
3132.578078315032,0.16415786236813218,0.08322329556457479,0.08093456680355737
3138.6744443540674,0.16992244317987007,0.00018839829941296214,0.1697340448804571
3144.751580679687,0.1511386539910518,0.0002464139046587629,0.15089224008639304
3144.985811468586,0.167540650139493,0.0012889743477736103,0.1662516757917194
3149.6652100966744,0.1886642337264075,0.04669264848403571,0.1419715852423718
3153.624066255994,0.12970329098300362,0.0008482870815604158,0.1288550039014432
3179.435055492503,0.2533934484606432,0.12403100496990131,0.1293624434907419
3183.5457176087766,0.28551105485183925,0.1112426229988745,0.17426843185296478
3187.5370219813676,0.1282579938682276,0.014868702761484238,0.11338929110674334
3188.9408586320246,0.2730409669102929,0.05597349983943121,0.21706746707086166
3189.3410060530873,0.26853041257138616,0.061817878224916,0.20671253434647013
3193.737261149831,0.31664553591423783,0.08462165295490126,0.23202388295933657
