frequency_cm1,total_intensity,isotropic_intensity,anisotropic_intensity
1.0627478114549754e-05,0.0,0.0,0.0
1.2460674093655384e-05,0.0,0.0,0.0
1.5809989791293744e-05,0.0,0.0,0.0
0.48310797652967535,0.0,0.0,0.0
1.2133379091591427,0.0,0.0,0.0
1.5159144165430218,0.0,0.0,0.0
13.694137355651042,0.0026353155567012307,1.2762490904624104e-05,0.0026225530657966066
21.17211842884352,0.0018435382927315495,2.2500640692774792e-05,0.0018210376520387747
38.811268098243545,0.0012642844736123458,3.698539211600777e-05,0.001227299081496338
41.72328497060784,0.0005566642096030635,0.0001556514480634684,0.00040101276153959507
50.991336267987606,0.0012758353051680953,5.733533561467831e-07,0.0012752619518119485
57.30880573211023,0.00046132130582406735,5.602598138729443e-05,0.0004052953244367729
59.30431429309072,0.0010938542587863123,0.0003703323864226173,0.0007235218723636949
69.31668678215885,0.0009634462466762998,0.00016258125678708638,0.0008008649898892134
77.29944982733075,0.000997525242759608,0.0001658752299853465,0.0008316500127742614
88.67798410590873,0.00047630112351717565,4.766877332189834e-06,0.0004715342461849858
91.31216881602985,0.0017681681415682346,1.6603992330366726e-05,0.0017515641492378679
100.09396832105685,0.0012481816833129684,0.0005911101638946896,0.0006570715194182787
110.00988134891318,0.0018333062153894845,0.001613905255540328,0.00021940095984915656
112.20156611538205,0.0004377771057784866,7.474585484131985e-05,0.00036303125093716676
122.40144456611333,0.0007219398028549785,1.2013615035356031e-06,0.0007207384413514429
137.09516034405573,0.0016684732491448486,0.000873454273496686,0.0007950189756481625
138.15558251527526,0.000699205703565136,0.0004054513710472142,0.0002937543325179218
145.59861914312475,0.00047472512529414724,0.0004469767069316442,2.7748418362503047e-05
152.80711291571632,0.0004131787457933051,0.00018791077105503548,0.00022526797473826961
170.01453497976016,0.0007795561749478379,0.0001432068189695899,0.000636349355978248
174.78425619640205,0.0026405700532848133,0.001200558955359452,0.0014400110979253613
189.17329948981074,0.001306546300194311,0.000301379995857278,0.001005166304337033
204.8522746209978,0.0021297328152603033,3.7564621433077226e-05,0.002092168193827226
215.89983068566065,0.010955550491323282,0.010220435395794319,0.0007351150955289625
237.42928943224678,0.0015976390164135035,0.0010672259724278821,0.0005304130439856213
242.63498870932503,4.047283365638181e-05,1.4779283001593195e-07,4.032504082636588e-05
246.52497603071316,0.0003145561336741743,0.0001795209416299562,0.0001350351920442181
249.448378464572,0.0013584978013689137,0.0006675778314277826,0.0006909199699411312
254.9322793499153,0.006390421295550705,0.003123731454138447,0.0032666898414122577
263.9019153763265,0.007953794704478795,0.004825770757894662,0.0031280239465841337
275.66134360673357,0.011062995575426273,0.009111800202783847,0.001951195372642426
290.6781483245309,0.007075980960510719,0.0024712372231935234,0.004604743737317195
315.3901967679575,0.011050459481522229,0.005389475861628141,0.005660983619894088
345.8819110206707,0.007244821500009898,0.0024771525020109487,0.00476766899799895
390.9366339892602,0.008819147781110197,0.0075588795522158955,0.001260268228894302
429.44732174461853,0.0010851769640917422,6.052589839716183e-05,0.0010246510656945803
438.70556023318227,0.0012357865456419383,0.00012412921484730846,0.0011116573307946298
448.9131724152902,0.0008166371086482424,0.0004068354063959228,0.0004098017022523196
466.4549503535256,0.0002382357817620056,3.766366169199959e-07,0.0002378591451450856
494.89266835599494,0.0022008050258495566,0.00022365551429849706,0.0019771495115510594
507.36886343400556,0.005597661004601043,0.003984309889160412,0.0016133511154406309
598.0607643323201,0.016935741253022524,0.003486008818818371,0.013449732434204153
727.867220961087,0.0020767249127023107,0.00018578181538514356,0.0018909430973171673
732.2932629483595,0.007716195349296641,0.001605553170648696,0.006110642178647945
733.221903076302,0.00014002773550501288,5.5244199743920854e-05,8.478353576109204e-05
742.9936705040282,0.0063520476054978155,6.0975188499070016e-05,0.006291072416998745
751.1050673448582,0.0025993695466426815,0.0010235198020920374,0.001575849744550644
754.4014122357842,0.0016584656804876636,0.000355345552968852,0.0013031201275188115
773.9193645337294,0.018832070126587153,0.0009997714902038612,0.017832298636383293
801.7871308130793,0.00537344618840579,3.39530272508013e-05,0.0053394931611549885
807.1161806955681,0.008996471364715656,0.0006799320816999656,0.00831653928301569
816.813884443325,0.007897624736772833,0.005449991752923674,0.0024476329838491583
837.7505090981358,0.07456608752997042,0.008258795240130777,0.06630729228983964
845.6564920664854,0.022972906698813515,0.0005542040127006469,0.022418702686112867
900.9142476210901,0.002198675471487192,0.0017799702943549012,0.00041870517713229094
904.9009217095935,0.005543340577377041,0.0014322007187708154,0.004111139858606226
908.768685386202,0.005163589931209416,0.00042687657681047067,0.004736713354398945
909.2829987477124,0.011794842301307461,0.009759456549985836,0.0020353857513216254
909.7217365477725,0.023029623095811268,0.01098067725409448,0.01204894584171679
910.2366644812713,0.056066180898325324,0.03621916532944948,0.019847015568875845
1005.7018820171955,0.0029906360584277354,0.001312071941085056,0.0016785641173426792
1009.8906159752182,0.002559861482431113,0.000772289837487725,0.001787571644943388
1011.2259628012029,0.003014845171565494,0.0016840330615422788,0.0013308121100232152
1015.060757617542,0.015217423962315511,0.002577524489024117,0.012639899473291394
1025.9882098399894,0.004655810269949445,0.0006885348975093323,0.003967275372440113
1032.9645504863095,0.007880065162286277,0.004456151346934706,0.0034239138153515708
1041.254335326728,0.004294901901952544,0.00021979929453861609,0.004075102607413928
1053.0784336877437,0.04153154287893936,8.646527998655657e-05,0.04144507759895281
1056.3009706749763,0.054027560195226,0.032215251373010435,0.021812308822215562
1067.7834943203923,0.005691740075217096,0.0031534171032900453,0.002538322971927051
1073.0039542075474,0.009327588334799897,0.0030802877132849764,0.00624730062151492
1074.943478880122,0.014686902878019657,0.0026307744316707536,0.012056128446348903
1085.929846623649,0.015883562642673325,4.824761409251529e-06,0.015878737881264073
1088.666696850601,0.030269148439868863,0.0019445660343207984,0.028324582405548065
1092.0313714289503,0.03964593875752268,0.0007140130525489464,0.03893192570497374
1093.038582072628,0.08512267438671664,0.0025081761754998317,0.0826144982112168
1094.1567272583825,0.031495120854294525,0.010735277944450788,0.02075984290984374
1095.6114585194773,0.02923349265421111,0.010449610080090507,0.018783882574120603
1149.1908961174565,0.07923237217963391,0.055901760221497565,0.023330611958136356
1150.5046748687257,0.11482158327151581,0.0805219475446585,0.03429963572685732
1152.647094406786,0.060631050260009894,0.03910871862294194,0.02152233163706795
1187.8151769576277,0.0044321471013033355,0.002622156505677861,0.0018099905956254741
1189.505625007327,0.00815360083857321,0.003031466422860288,0.005122134415712921
1194.3542819884024,0.0032379265133657136,1.045403682531805e-05,0.0032274724765403956
1230.674452897476,0.003130521345017454,3.160845569514343e-05,0.0030989128893223108
1234.3865793609114,0.007484489927936244,3.67327693768918e-05,0.0074477571585593524
1236.961151607766,0.0029574648288016947,0.000317816216192382,0.0026396486126093128
1253.794266437265,0.003917349747440681,0.0024903004021971905,0.001427049345243491
1258.774142133503,0.004330956690399101,0.000907237980461439,0.003423718709937662
1259.0560696690904,0.0025560689526086247,0.0003536172929695205,0.002202451659639104
1285.158163808789,0.004575832036326172,5.572861065232331e-06,0.00457025917526094
1287.9901510781672,0.004991644816282464,1.7435088315109547e-05,0.004974209727967355
1291.360052843503,0.002566723648462144,0.0004576434150893907,0.0021090802333727536
1317.1269799318388,0.016334610353812836,1.3502817103238455e-07,0.016334475325641803
1320.8610783592455,0.033217215227492616,0.002809242689605431,0.030407972537887188
1323.3646814982887,0.00391385932551141,0.00013772185220062085,0.003776137473310789
1324.087087768941,0.019857786951640505,0.0014482135982772564,0.018409573353363247
1325.4792267712664,0.015478836618133467,0.0001725566994615355,0.015306279918671933
1326.532266826664,0.06224226741227257,1.862574502936422e-05,0.0622236416672432
1327.4122301251537,0.013397234938129493,0.0003619443812216724,0.013035290556907822
1332.3053755100805,0.03521047048043352,0.001301252523664484,0.03390921795676904
1333.1410376513109,0.044953800607139695,0.006902246724064402,0.038051553883075295
1335.9575253465337,0.005722589005380488,0.0020289704592501025,0.0036936185461303858
1338.0191631043701,0.0070050759181368594,0.00014257211916925459,0.006862503798967605
1338.2729855556445,0.03038944758259585,0.0011554195533807663,0.029234028029215084
1382.621305568264,0.000796924038094581,6.707813933856703e-06,0.0007902162241607243
1383.0312339732175,0.003376898305169588,0.0019688597783342563,0.0014080385268353316
1384.3261288627616,0.0012784873092901823,0.00045797833460167926,0.0008205089746885029
1412.1214216858361,0.000612235844053036,0.00024710066129344653,0.0003651351827595896
1413.3248919359248,0.0015909789269504255,0.00012471281322385145,0.001466266113726574
1413.4894985422857,0.0036330642790664554,0.002008607020876001,0.0016244572581904544
1416.0483308784108,0.0038093106429206475,0.0002999689691256842,0.0035093416737949634
1416.123473184884,0.0016806653402385325,1.6058784181294123e-05,0.0016646065560572383
1416.6813089687453,0.022170026302165448,0.00024611897673896237,0.021923907325426484
1424.1329336042859,0.006581282643176494,0.0014824994367458326,0.005098783206430661
1425.3708926732575,0.014277392017594759,2.746467407068001e-06,0.014274645550187691
1429.4886666304612,0.018257010132615922,0.0061873460602660385,0.012069664072349886
1476.0948269780922,0.0009650370132393761,0.00016238658161090116,0.000802650431628475
1479.734183713562,0.00550518306857724,4.1710928126398584e-05,0.005463472140450841
1483.2440989363645,0.052593108589769,0.00278386619080725,0.04980924239896175
1483.8926149553763,0.0022826027001620944,3.951000606510462e-05,0.00224309269409699
1485.337914913792,0.03190826239042057,7.292839775236539e-05,0.031835333992668205
1487.2225492261343,0.012088679356329896,0.0014138827882504445,0.010674796568079452
1489.612342092465,0.008686842878804994,0.00043554058450473156,0.008251302294300263
1490.7774436682662,0.11217217439405647,1.7454230871827718e-05,0.11215472016318465
1491.5983532796217,0.049364521825156576,0.0010580776003707916,0.048306444224785784
1493.476459894881,0.020352898207063458,0.000701886247509684,0.019651011959553773
1494.3803845723187,0.026931719759346766,1.113947054127048e-05,0.026920580288805496
1495.4137317270577,0.03989714153470607,0.00014427481801366037,0.039752866716692405
1495.9137877541173,0.012486849815279078,1.0799993791926714e-06,0.012485769815899885
1499.785817183578,0.02312193760679286,0.0014929598346084877,0.021628977772184373
1502.9607792252343,0.009000271220351857,0.0008453063198639646,0.008154964900487893
1503.7576826161553,0.010892355567281763,0.00032485822936450094,0.010567497337917262
1504.0894095709964,0.007395968819551963,0.0012634766848280516,0.0061324921347239115
1509.7900267701089,0.009270128614015823,9.96619565871233e-05,0.0091704666574287
1510.630888245505,0.040490814252593745,0.00010008796630172538,0.04039072628629202
1519.3561631694743,0.014610948124349786,0.0003493271660431214,0.014261620958306664
1531.6814508391726,0.047924722780209254,0.005676808699476122,0.04224791408073313
3023.8430183213723,0.17438004880570973,0.15683174413715967,0.01754830466855006
3025.605393893119,0.8011815778049072,0.7661010398872572,0.03508053791765003
3025.9237635052677,1.4881887202264343,1.3828207193212916,0.10536800090514281
3030.553729645505,0.16632927700495154,0.15163895007984504,0.014690326925106509
3030.828381467052,0.03949653806376234,0.03018376800088321,0.009312770062879134
3031.300542351034,0.4557553410998217,0.38698056763317207,0.0687747734666496
3037.9413473279596,0.9407871360417622,0.8280187680480017,0.11276836799376053
3040.457736493809,0.022987300787910156,0.01600987427001512,0.006977426517895033
3042.4385488561975,0.7363928604634168,0.6855767949484031,0.050816065515013706
3043.9419461968173,1.1269792137514076,1.03314141253924,0.09383780121216771
3050.422757743202,0.5071371571380138,0.0001703586604191299,0.5069667984775946
3050.496950113684,1.0925386961707655,0.0006231683887488677,1.0919155277820167
3052.1100608024512,0.7765665077133772,0.759817094053283,0.016749413660094248
3052.163382806315,0.06926467949156527,0.00611241417421167,0.0631522653173536
3052.993270586347,0.9250732485438946,0.9023310836900462,0.02274216485384836
3053.9868436482047,0.1677955216193343,0.09476487268534606,0.07303064893398824
3054.2747530065885,0.6954562607442943,0.6570096731526385,0.03844658759165589
3059.431455273691,0.5653461065013458,0.5373693358740468,0.027976770627298943
3064.041153357758,0.07653444123446353,0.0015921759690939183,0.07494226526536961
3065.762355677093,0.025087784323220418,0.015514209414039292,0.009573574909181128
3067.1866274312792,0.010731546840626365,0.0010174260556267197,0.009714120784999645
3070.8542089352186,0.5109744798793544,0.450355531500258,0.06061894837909643
3072.449318530393,0.8870638920594999,0.7930429428503506,0.0940209492091493
3081.149785796715,0.2203256055768954,0.12737453470718924,0.09295107086970616
3082.634900542223,0.23298776753661962,0.014884095957958577,0.21810367157866103
3082.9715220728813,0.15633376601954346,0.0041609232551404,0.15217284276440307
3086.4362210174017,0.006081319792775892,0.002640026631317872,0.0034412931614580195
3094.2554875142782,0.19616109259459197,0.09009773763041297,0.10606335496417901
3107.3417515495535,0.2563370506509274,0.06668124321825482,0.18965580743267257
3113.895165783424,0.22835319580569136,0.15277530785920326,0.07557788794648809
3115.023810806743,0.2341984745823493,0.004813027024904622,0.22938544755744467
3115.173995275334,0.22897365848138393,0.023955385377680723,0.2050182731037032
3116.0295105031255,0.0529677274524352,0.01992279214623776,0.03304493530619744
3119.417749528579,0.05830012996533049,8.61187026547916e-06,0.05829151809506501
3124.0911438531734,0.047773095994513834,0.004699944018662784,0.04307315197585105
3124.4710086752475,0.4215497076221837,0.06514757115653273,0.35640213646565094
3125.271070802714,0.6608459678228786,0.09164221285101642,0.5692037549718622
3130.993308455555,0.09457393507474779,0.03548924288429966,0.05908469219044814
3136.1111169262804,0.04653758357179122,0.019454341347098936,0.02708324222469228
