frequency_cm1,total_intensity,isotropic_intensity,anisotropic_intensity
2.4148322432845974,0.0,0.0,0.0
0.9129859821486622,0.0,0.0,0.0
3.1053365650705375e-05,0.0,0.0,0.0
1.5821593389682317e-05,0.0,0.0,0.0
1.7008520805495434e-05,0.0,0.0,0.0
0.34736405198282644,0.0,0.0,0.0
21.157603534637634,0.025126396971206333,0.0002628697916583084,0.024863527179548026
26.39264399231309,0.05077029998764743,0.00015436983614104116,0.05061593015150639
46.77308025436321,0.027675483768685383,9.965125666478313e-05,0.0275758325120206
116.7419239318493,0.016386430407347156,0.0004344461710414172,0.015951984236305738
136.2044699664647,0.01613039523117924,4.858459156986658e-05,0.016081810639609374
165.25977507355285,0.011118265658304285,0.00655734880346136,0.004560916854842925
174.98416679100657,0.0009620595406934404,0.0001352337855058434,0.0008268257551875969
184.71881122620564,0.0006838565027375605,1.6325252566679167e-05,0.0006675312501708814
229.26366921442826,0.004114982251246794,4.0140521487085765e-05,0.0040748417297597084
278.9215492673156,0.0016577218632004304,0.00034198880608520796,0.0013157330571152224
303.2008473463466,0.00529616077476355,0.0005460628781662761,0.004750097896597274
400.75735529277546,0.009000566093415398,0.003425873883604112,0.0055746922098112855
409.35026259355055,0.013619317789214217,0.0014024051067581312,0.012216912682456086
415.3655586688291,0.010709652315508057,0.0028600471621883306,0.007849605153319728
425.0302859565265,0.005970164847928745,0.002481976781597985,0.003488188066330759
485.1687158972501,0.0006557591364571107,2.0422638501739526e-05,0.0006353364979553712
490.40450218408967,0.0019254456999426685,0.0012405679477018098,0.0006848777522408588
494.75395714238925,0.01606574219080765,0.004157294757883278,0.01190844743292437
502.2280478225936,0.002987379751911984,0.00023237599092677352,0.002755003760985211
526.4627164446815,0.05391381956151834,0.02287427332037796,0.03103954624114038
529.7283191367919,0.034886348996146746,0.006751800343825773,0.02813454865232097
546.2860445899937,0.0004986891436532709,1.28852006627166e-05,0.00048580394299055433
551.2127180799766,0.0367394320224921,0.0034078603073085484,0.033331571715183556
615.5577935298045,0.011967905831837674,0.005969844341369121,0.005998061490468554
636.7309581439546,0.0018180066999055368,0.00018739649584238453,0.0016306102040631522
643.4253835846902,0.0005094881066465441,5.756194186594414e-07,0.0005089124872278847
675.8662722706943,0.008185342444649434,0.005290234700001484,0.002895107744647949
739.7659749527553,0.11139704641160092,0.0842299764119702,0.027167069999630717
752.2460787600438,0.018696405205139155,0.017669409672135587,0.0010269955330035683
755.1471613338871,0.0023409345304487117,8.926409603479194e-05,0.0022516704344139197
781.6717990909907,0.016897761957732835,0.015150644128620048,0.0017471178291127865
797.3800487931272,0.1999348998518765,0.1766010211129308,0.0233338787389457
801.1574086010272,0.008851176019286835,0.00833347863779355,0.0005176973814932841
801.9094798645878,0.024232983988821573,0.020953793742840208,0.0032791902459813668
812.1604921017864,0.023577036521199055,0.019476381716791502,0.004100654804407552
818.6382499358967,0.0009476782564909253,0.0004753067199041673,0.00047237153658675796
850.9589510137914,0.00879172204051272,0.007814438908842604,0.0009772831316701164
873.6618448605291,0.01766333461110997,0.014439810189511135,0.0032235244215988355
880.3366184751987,0.017363741540329273,0.014827790536753064,0.002535951003576209
892.4955447519718,0.0006258058569508394,9.45800401708593e-06,0.0006163478529337534
910.2905371897402,0.0057983462624630324,0.0038635746001991485,0.0019347716622638842
932.6418608301797,0.0022598143636486773,0.0006042226648257274,0.00165559169882295
937.948152132299,0.0038915009434014065,0.0011470069096783362,0.0027444940337230704
971.7489932869679,0.01319307180914179,0.00594440627299778,0.007248665536144011
990.6925626342612,0.006998842730663675,0.002909885184251364,0.004088957546412312
996.6681448747654,0.005955845775660025,3.2937487708705256e-05,0.00592290828795132
1003.1831852688251,0.002198812314747822,0.0001828555439508291,0.002015956770796993
1011.1026229490351,0.000600170805063465,2.551744826218206e-07,0.0005999156305808432
1015.240563703157,0.001678874440193441,1.0325347473696573e-06,0.0016778419054460714
1022.3003628572562,0.0008548673603738315,4.49746812912889e-06,0.0008503698922447026
1023.4067380733214,0.0016006829787831528,2.7882415245295948e-05,0.0015728005635378569
1041.171551047894,0.014338011101113126,0.010068936033625516,0.004269075067487611
1050.0996310925457,0.1340763119819018,0.10637661039323396,0.027699701588667865
1060.549538260205,0.07623091163281555,0.05383606911341227,0.02239484251940328
1104.2306928585,0.06656213594281934,0.056603879246943135,0.009958256695876211
1151.535346621293,0.014334837607338672,0.005345963260399135,0.008988874346939537
1160.5805623026351,0.010314810928985936,0.0001841538844751162,0.01013065704451082
1163.6000470484041,0.033643752341276714,0.004215060752577292,0.029428691588699422
1183.1952554708412,0.04209732379056734,0.005562360545852868,0.036534963244714475
1185.7555907591507,0.010347246716289654,0.0003549436603031878,0.009992303055986466
1194.0145595153374,0.028303496485485496,0.0037792782626539802,0.024524218222831518
1204.4694461599402,0.05498365677917856,0.025593387539678346,0.029390269239500215
1213.1548847425756,0.01830187773839775,0.003981837447405138,0.014320040290992611
1230.9785028351987,0.032590603905397454,0.018255620326732325,0.014334983578665129
1243.8114613473779,0.03440698603658569,0.014483693136936778,0.019923292899648913
1271.555565110161,0.007143985849708797,0.0030397502566095074,0.004104235593099289
1281.988296109043,0.01638108143879928,0.0067036073059648545,0.009677474132834424
1291.9433748175552,0.0013465889702905178,0.0005799979040854534,0.0007665910662050644
1296.5949848513148,0.006003523054464529,6.79870356072887e-05,0.00593553601885724
1331.800554422075,0.08274779069283704,0.0050176829064993815,0.07773010778633765
1391.2493680626326,0.08424831851600945,0.04908846179835174,0.035159856717657714
1402.3945776120179,0.035691042988959996,0.024500658509796283,0.011190384479163715
1409.0231964938291,0.3759600568969618,0.2592411250386536,0.11671893185830823
1423.1346428733157,0.78382111474479,0.47720729288869596,0.306613821856094
1433.395031169406,1.8442256326394952,1.1346230684263523,0.7096025642131429
1439.010717233511,0.2568326357004376,0.15527103435818643,0.10156160134225112
1483.106482053634,0.22207230132320283,0.12210410969493259,0.09996819162827023
1486.314088121784,0.05858005351304256,0.002578332488447653,0.05600172102459491
1489.583061648708,0.24647200854145326,0.12277028130149173,0.12370172723996153
1512.9403272983789,0.11180449225449739,0.03684097928565212,0.07496351296884526
1522.0645884470086,0.3904065844809995,0.1760217258768639,0.21438485860413561
1564.7939899265668,0.0032959628211834168,0.0004857623017897061,0.0028102005193937104
1568.5372629626463,0.025527482164199252,0.019619886475107703,0.005907595689091549
1655.5912650222067,0.15453036421310035,0.03265323060832672,0.12187713360477363
1662.2035755992583,0.3503824076518921,0.07139110986564384,0.27899129778624826
1680.5920856216421,0.006917982975131554,0.0005428761116326531,0.006375106863498901
1686.1305164663281,0.03630741663373499,0.006230298849152744,0.030077117784582243
1712.035154739573,0.027276069134613796,0.005033594775923025,0.02224247435869077
1725.3786014057196,0.2747054041787065,0.07431829134594316,0.2003871128327633
3051.775310520488,0.8662697230670939,0.8287121692176652,0.03755755384942876
3089.6811015861076,0.16706921579582967,0.002425509513906015,0.16464370628192365
3178.6126662314773,0.19181027749091042,0.12815601109625369,0.06365426639465674
3186.6884989326154,0.11226891603100146,0.00041458589117191277,0.11185433013982955
3188.3738943543867,0.044721772619099695,0.0001374644207320797,0.04458430819836762
3189.381235704386,0.012151240540181678,0.005188060522923498,0.006963180017258179
3191.663145239746,0.45141297528729096,0.14499354177932036,0.30641943350797063
3192.5015458255875,0.6430588757165306,0.1334943958557185,0.5095644798608121
3201.565865418182,0.5802283531197908,0.010586463627285575,0.5696418894925053
3204.745721951712,0.8144658273210245,0.6137626867534178,0.20070314056760666
3207.4866394527908,0.4913007633053092,0.07852450842882323,0.41277625487648595
3207.8384676083338,0.4777870841063776,0.0006900485246503797,0.4770970355817272
3215.739630167193,0.7377799109833219,0.4011231567727307,0.3366567542105912
3220.0756696406957,0.9487907693649255,0.7391330083774346,0.20965776098749092
3220.287543432424,1.8760778663619038,1.4415513302638245,0.4345265360980793
3226.705753158686,1.0414169269253915,0.853092719702742,0.18832420722264936
