frequency_cm1,total_intensity,isotropic_intensity,anisotropic_intensity
1.5626874539046618,0.0,0.0,0.0
1.20281285194749,0.0,0.0,0.0
1.7041536826891745e-05,0.0,0.0,0.0
1.0394797140287199e-05,0.0,0.0,0.0
2.7735450937874983e-05,0.0,0.0,0.0
2.4347318844709673,0.0,0.0,0.0
11.985777301034338,0.011454079238002828,2.0884861420543252e-06,0.011451990751860774
20.725552970131517,0.03425534708233828,0.00012699237078390402,0.03412835471155438
34.477136938150394,0.021169014745681353,0.0009255311920871722,0.02024348355359418
66.0001521591062,0.03899578469426797,0.006343329138063981,0.03265245555620399
77.59695431552345,0.006158738720596997,1.8544302734200058e-07,0.006158553277569655
102.13217358659901,0.012075867532045714,0.0005655964635038159,0.011510271068541899
191.73378555112407,0.002784889804629161,9.814814288436375e-05,0.0026867416617447973
203.4524174390537,0.010327470444962177,0.0006817644363545908,0.009645706008607586
249.8338060271859,0.015910910207471263,0.012534632483878708,0.0033762777235925535
306.0414725237205,0.013008509246999962,0.0003246209036783423,0.01268388834332162
333.83466171356764,0.005662472453060781,0.0008759350259055764,0.004786537427155204
359.8939392677097,0.005155028661334347,0.000588377702620635,0.004566650958713712
411.8913155568158,0.0038629699503232653,0.001007119656498283,0.0028558502938249826
416.9735700346861,4.658763299094547e-05,2.1310788479278414e-06,4.445655414301763e-05
417.81241980096866,0.002493703250503733,0.0013443998679917304,0.0011493033825120027
425.65405916345765,0.02151008210059185,0.006077177473568278,0.015432904627023573
482.76818541974717,0.004757754791083886,0.0015504140433492285,0.0032073407477346575
513.7322353301205,0.0012068923608219394,0.00030812078862770865,0.0008987715721942306
559.3188248117783,0.007698340938578572,0.0012935795959863466,0.0064047613425922256
581.9194962187715,0.003936243708159109,0.0005480741153894455,0.003388169592769664
628.1914540062634,0.004912996233412804,0.000958823306369194,0.00395417292704361
632.6731796065916,0.03398763204056708,0.000232943115333704,0.033754688925233374
635.6988647862751,0.017210826307913107,0.0001588977417861534,0.017051928566126952
657.1520754488171,0.014552307108162115,0.0005034029895500284,0.014048904118612086
721.9109016439501,0.0024797934155239712,0.00010270581105093178,0.0023770876044730393
723.704740595923,0.0002540593693876171,7.54136817108703e-06,0.00024651800121653006
726.0712476794255,0.010433610651392202,0.00019148056777676866,0.010242130083615433
752.715581398451,0.0012663728942879026,0.0006818923759662779,0.0005844805183216247
775.1432169404535,0.04080718154610324,0.03733695032821675,0.003470231217886486
788.3897191439055,0.03919271713269435,0.031810289280446734,0.007382427852247618
830.5298479466411,0.11032152711509605,0.09732025129340108,0.013001275821694967
853.8704494120783,0.060456803665142694,0.0378360279401152,0.022620775725027496
869.3370108062632,0.01626343560214044,0.011759182870945017,0.004504252731195423
873.5553403025361,0.0034610437018397413,0.0010358812929905385,0.002425162408849203
874.3139209603717,0.04126253998562586,0.02730351510899608,0.013959024876629783
876.8334388025671,0.013223358506067907,0.011897236097074082,0.0013261224089938261
930.4229641613579,0.004754237432129074,0.0043587416062148485,0.00039549582591422616
954.6699171884158,0.0006534973419154677,0.00038201908606739685,0.00027147825584807083
959.8277738575483,0.0030634262965458514,0.002375397648203153,0.0006880286483426986
995.3334771108009,0.0010568882597315275,4.9682330971780135e-08,0.0010568385774005558
1008.3338357360625,0.0010727571720844597,0.0003704225880853063,0.0007023345839991533
1009.9113218110448,0.011737831249316388,0.007959532249345083,0.0037782989999713057
1011.2114806433998,0.04324334312780445,0.026037517227670677,0.017205825900133774
1025.4243655859332,0.15820969738632093,0.12378925943528662,0.0344204379510343
1027.3568315645302,0.14374650969815256,0.125826552287072,0.017919957411080538
1028.5348350834145,0.042777502345279994,0.0376535146431527,0.0051239877021273
1029.3962944252287,0.0006510412344752682,0.0001128062387686443,0.0005382349957066239
1036.1173913562322,0.07053457929442664,0.054383511726400255,0.016151067568026388
1057.175622002067,0.0434175327894438,0.0339764809938345,0.0094410517956093
1064.599179914899,0.13863012355122253,0.1209587977509152,0.017671325800307343
1078.5848558600444,0.07176586234664399,0.05638284621238853,0.015383016134255459
1111.1670081100929,0.002208007075950662,0.0009663579328489002,0.0012416491431017618
1113.3415970781757,0.0001001341395962174,7.643271394418527e-07,9.936981245677555e-05
1139.7230105821757,0.004217299751715714,0.0011525972186054898,0.003064702533110224
1173.4738750867025,0.00947140350423079,0.0009230839709755982,0.008548319533255192
1174.905547186419,0.035274399926158516,6.577698213519282e-05,0.03520862294402332
1197.303056921845,0.06807950477135644,0.020945424951258368,0.04713407982009807
1206.2506236353536,0.008964406359951778,0.001791636027834928,0.00717277033211685
1206.8373761180521,0.030396790280750853,0.0020573457071087963,0.028339444573642056
1213.6786702953373,0.083146395878365,0.07064317429973267,0.012503221578632324
1234.2444193681665,0.14560954529655462,0.12429220388858794,0.021317341407966678
1238.315689915329,0.07315857404566689,0.04469869886236607,0.02845987518330082
1282.9634839727532,0.008742260060360475,0.0014550096514538272,0.0072872504089066484
1299.7804503134762,0.017653899671279283,2.8818168878969163e-05,0.017625081502400313
1319.1045244389677,0.0772811658782401,0.04206768746028312,0.035213478417956995
1323.7776281343786,1.2238204600603386,0.7418559973533355,0.4819644627070032
1337.3528964001232,0.026606423572244815,0.005419839472170868,0.021186584100073947
1357.255377631412,0.010212236294782961,0.00036367469180282697,0.009848561602980135
1358.5492787544345,0.009118855595634462,0.0004151757189300412,0.008703679876704421
1369.560750142545,0.006575307522799204,0.0014225213200055107,0.005152786202793693
1452.1847153482956,0.004939482101769506,0.0003396161952575782,0.004599865906511928
1477.1449931880334,0.04814177748974469,3.3077083226409795e-05,0.04810870040651828
1495.1356384699275,0.025655280402209178,0.0005013986600015895,0.02515388174220759
1500.3695710634177,0.011640692454989453,0.00012208406412294746,0.011518608390866505
1539.1595867392964,0.029878613470304814,0.0105356930723837,0.019342920397921112
1545.252869120378,0.005016124905377637,0.00015217769698529628,0.00486394720839234
1574.856757912112,0.27420684884074814,0.11052838149938123,0.16367846734136693
1641.292788672261,0.0019394577565531915,0.0003443722541517994,0.0015950855024013922
1661.682631245725,0.01586655235575647,0.0005080968588738392,0.015358455496882629
1664.3824145992178,0.05584794181269632,0.0017084634004362696,0.05413947841226005
1682.6208793366213,0.7284533861256622,0.23581481250687106,0.49263857361879115
1683.4657552180595,0.2668398526961962,0.012213328958765849,0.25462652373743033
1695.1785944338196,2.2986941843497153,0.7738783162038243,1.5248158681458908
3059.461795313273,0.9387777002707065,0.8603864337853744,0.07839126648533212
3101.684826588703,0.22253895754318423,0.0004291996193751754,0.22210975792380905
3183.872480010246,0.1870776541826894,0.060341829670922956,0.12673582451176646
3185.0317333823164,0.2845608051830172,0.07720387495070631,0.2073569302323109
3188.245046080987,0.22798730630992617,0.0024151726996728263,0.22557213361025336
3191.313053864758,0.21778664076980456,0.010093852546088555,0.207692788223716
3192.5424343717063,0.1629389879395523,0.0419919363019093,0.12094705163764301
3197.5804217836558,0.4023940046611014,4.720624788603497e-05,0.4023467984132154
3199.308932671609,0.526529927661151,0.14353045884099022,0.38299946882016084
3206.012427041945,0.3242468301923053,0.0643365955591156,0.25991023463318974
3207.608306996193,0.14904316519886826,0.03696955975161948,0.11207360544724877
3207.793322089703,0.18199247043944058,0.00014049416100810866,0.18185197627843247
3210.9534733027235,0.6600962978986513,0.4374246453649512,0.2226716525337001
3213.550117089024,0.10407391081702204,0.001402831878852425,0.10267107893816961
3219.7790266225566,1.4608712588718125,1.1610010604710492,0.29987019840076334
3222.1874904624337,1.9094432477441232,1.5923248127740475,0.31711843497007575
