frequency_cm1,total_intensity,isotropic_intensity,anisotropic_intensity
1.0915018032581465,0.0,0.0,0.0
0.9339116243469576,0.0,0.0,0.0
1.3272272406373877e-05,0.0,0.0,0.0
6.211978361561471e-06,0.0,0.0,0.0
1.9231305953914275e-05,0.0,0.0,0.0
2.4704008728680935,0.0,0.0,0.0
12.331315775691559,0.0010285327532873077,1.4510612196811972e-05,0.0010140221410904957
23.49441190529979,0.0018535215285220773,2.663099201970088e-06,0.0018508584293201072
31.909194206304846,0.0006018378407496045,2.6075508279340407e-05,0.0005757623324702642
40.34015331760937,0.0003705508019240831,2.2591451338056617e-05,0.00034795935058602647
48.46101029428205,0.0005373733129786926,1.3248670259852499e-05,0.0005241246427188401
63.28929936342493,0.001847564969063729,6.975874440444365e-05,0.0017778062246592851
69.78793299422917,0.0008667703716277213,2.412486291019342e-05,0.0008426455087175279
91.01904029459804,0.00012474186813636275,9.062953353082166e-06,0.00011567891478328058
100.44494557411373,0.0003934048123231975,0.00011197075847734766,0.0002814340538458499
117.11410981095922,0.00013281442122961616,1.8695688503672528e-05,0.00011411873272594362
126.38376509390822,0.0012996782050150378,0.0009148630089725607,0.00038481519604247717
141.13913425957114,0.0007354662132897286,0.00036693496671764503,0.00036853124657208356
144.3426003144061,0.001627669375316522,0.001287299557211689,0.00034036981810483304
153.0846286458434,0.0017523222864001824,0.0012634072633692143,0.0004889150230309681
164.39794871838708,0.0009226627247237622,0.0005171059671645668,0.00040555675755919545
188.59762091612157,0.014721125781299613,0.009675190480604704,0.0050459353006949105
220.22314122964642,0.0014008221436356575,0.00072414714028168,0.0006766750033539776
245.40319315104935,2.8072395935431642e-05,2.8627448284436756e-06,2.5209651106987965e-05
245.91474754836358,2.2167254938681564e-05,8.366095782808876e-11,2.2167171277723737e-05
298.4093555131305,0.004333837327106262,0.001896447545348365,0.0024373897817578974
325.84314663808726,0.001621912456288095,4.591437004897897e-05,0.001575998086239116
343.1487987584629,0.0007581144308520302,0.0005982272132360834,0.00015988721761594682
361.6091792746631,0.0028605459303245374,0.0006916876418636541,0.0021688582884608833
421.2455476818831,0.005535410514169221,0.00396304591747013,0.001572364596699091
466.0349827885715,0.00030345385873323586,0.00021627694350817738,8.717691522505848e-05
485.02414629680163,0.00018827283234721553,6.523931790160518e-05,0.00012303351444561034
548.2682261240794,0.0047657741500892825,0.0011228217341893007,0.0036429524158999816
594.9897890017328,0.0007312309588912869,9.782788677102366e-06,0.0007214481702141846
706.724732529115,0.0024747730657445474,7.125143897329814e-06,0.0024676479218472174
728.9491781271666,0.000148623918306696,4.27850330965578e-06,0.00014434541499704022
733.8943420754653,4.534105327222565e-05,7.273803861727021e-06,3.806724941049863e-05
735.9159910546779,0.00046700790943727415,9.122189747818912e-05,0.00037578601195908506
755.9527087363681,0.0004335006475530675,9.111158475560328e-07,0.0004325895317055115
771.0742039849512,0.0017840133941909176,0.00021210419105259794,0.0015719092031383198
804.3437130638375,5.813398202073994e-05,7.84097474146241e-08,5.805557227332532e-05
854.1422004320416,0.009151110898396105,0.0047376651221613395,0.004413445776234765
872.1774919662059,0.000608851903952686,6.541031066317366e-06,0.0006023108728863687
904.9400317502282,0.009125136102023543,0.0012624123096834409,0.007862723792340102
908.5964980877992,0.05444530703740135,0.0388616396991747,0.015583667338226652
922.8422543493353,0.04913852582031601,0.03489663592663102,0.014241889893684991
951.8079907090088,0.00013104000952902302,2.4664016440236892e-06,0.00012857360788499933
992.7923942162511,0.0031353823018340195,0.0014421773503031227,0.0016932049515308968
1009.5588326178171,0.008221885397668577,8.517280357792064e-06,0.008213368117310785
1025.8910223341254,0.009325394687883428,0.005095921162851497,0.004229473525031932
1028.7990049249988,0.00022858392242951713,5.04093160394631e-05,0.00017817460639005402
1040.5226799419336,0.002509781895456214,0.00013088607546575496,0.002378895819990459
1049.612381490198,0.010643334979311518,0.005516412509008331,0.005126922470303187
1067.122824437766,0.020352571647043387,0.0018807608254212183,0.018471810821622168
1076.1596750350848,0.012492172588627759,0.0037109532451913836,0.008781219343436375
1087.0572205832493,0.06116318444467314,0.01582265575797095,0.045340528686702186
1088.8612549524153,0.005591589714319625,0.000969572767636181,0.004622016946683444
1091.0714660014523,0.042283153861183725,0.0028288036014788164,0.03945435025970491
1102.0796420727613,0.016414179824693557,0.004182703712663504,0.012231476112030055
1142.343727527606,0.003569404566778757,0.00010294933985463392,0.0034664552269241234
1148.3694744175093,0.07698004706357953,0.053919783076925715,0.02306026398665381
1152.5121361377812,0.13417957946556838,0.0815110022847659,0.05266857718080248
1194.343554739382,0.003485541997929743,0.0012230969695691631,0.00226244502836058
1205.19590098526,0.0064998445127328105,0.00338441156256147,0.003115432950171341
1213.1033972089556,0.005492911583506489,6.420693639090312e-07,0.00549226951414258
1244.0293119923824,0.0017122338195968184,0.00015493482156644383,0.0015572989980303746
1252.799504265901,0.0007938577406561941,2.392069152034017e-05,0.0007699370491358539
1253.7126684371124,0.0012840810072627207,0.0004384775554131955,0.0008456034518495252
1273.1133692024018,0.001183991906413145,0.00040647386234933324,0.0007775180440638118
1291.3960264492123,0.0006345570469970071,8.443890271281861e-06,0.0006261131567257253
1292.2835784725335,0.004324716490468381,4.63464247236674e-06,0.0043200818479960145
1313.6007533035324,0.002007323895364623,0.0007144147563075015,0.0012929091390571216
1319.872191063941,0.003697850691218442,1.881052115609656e-05,0.0036790401700623455
1328.0154895230503,0.09251259521123817,2.4842400011128496e-05,0.09248775281122704
1332.2885612821365,0.06316497871487503,0.0009599887237051035,0.06220498999116993
1335.5328934568236,0.000692766560209134,1.5081680845542802e-06,0.0006912583921245797
1335.6983245913495,0.0020902562815012103,0.00010479473129861762,0.0019854615502025927
1337.5168803205988,0.0001242329696614875,6.709610581764915e-06,0.00011752335907972257
1342.029729478461,0.0007674741602312234,8.707650561852593e-05,0.0006803976546126975
1353.56144777517,0.0018678015842260257,0.0011243260278895161,0.0007434755563365096
1376.7929143970555,0.0006779293592867488,2.8817139128283893e-06,0.0006750476453739203
1404.0919268343598,0.0012910278065665884,0.00016257139501445612,0.0011284564115521323
1409.6998211707266,0.0042564238957604784,1.8640681900321637e-05,0.004237783213860157
1413.1135431388889,0.001961599699012582,0.0015580587954895754,0.00040354090352300633
1414.283915245705,0.003164537931083804,0.0010487833583212626,0.0021157545727625415
1419.8398130507467,0.003765734018278712,5.006917287510619e-06,0.0037607271009912012
1423.5752598520908,0.003933581210641828,0.0006075949012416995,0.0033259863094001287
1435.9718934498953,0.0054052416933855615,0.0014613854143628038,0.003943856279022758
1460.9510962137028,0.014182426518955406,4.2207652046640766e-05,0.014140218866908765
1480.9919520407132,0.0015063603810960456,0.00023263314963213954,0.001273727231463906
1482.127417442552,0.033656425776125355,0.002088110018131331,0.03156831575799402
1483.1424207813316,0.023114874810498516,5.4136255550911424e-05,0.023060738554947606
1484.900661935741,0.10845491363535616,0.004371181930563971,0.10408373170479218
1487.545994108712,0.04187552028961738,0.006752030617451145,0.03512348967216623
1488.9213146095783,0.03184094578546636,0.0019428174998533628,0.029898128285613
1489.343222045144,0.0224409790495866,0.0014329482390019865,0.021008030810584614
1493.8201934780323,0.027085077933224955,2.4077155505833628e-08,0.02708505385606945
1494.4073707717955,0.02604541135903592,1.3737948689633276e-05,0.026031673410346286
1495.9837128933348,0.011551927242886492,0.0006447757762445443,0.010907151466641948
1499.5886119062443,0.0063019443137680015,1.6862700621647202e-07,0.006301775686761785
1502.4608409563084,0.0015096878043691332,0.0008334070487964309,0.0006762807555727023
1506.1704578277224,0.0021636689720563587,5.847096122686243e-05,0.002105198010829496
1506.6548003001753,0.0007784306164596744,3.971894035460099e-05,0.0007387116761050735
1812.6856986873486,0.02460697322165581,0.01904538622738426,0.005561586994271548
3021.425494397135,0.04914017032679456,0.048751328164769375,0.00038884216202518627
3024.146292796,1.6535219546971176,1.6033882960798378,0.05013365861727982
3025.7771403755287,0.23206899759699678,0.21246869173959482,0.019600305857401953
3026.116360658317,0.7341595169088403,0.6797422163383867,0.05441730057045353
3034.4133823487005,0.15959443725504327,0.14489321972554586,0.014701217529497396
3041.188475459512,0.43430450669726883,0.3999222301202571,0.03438227657701171
3042.52850848177,0.32449021868347133,0.2878849944699616,0.03660522421350978
3044.6052585540956,0.9305856301449786,7.134235175326036e-06,0.9305784959098033
3049.1034186292322,0.0008707510730315756,2.948943435826045e-05,0.0008412616386733151
3050.412063532508,0.8847022220160096,0.8774491136271406,0.007253108388868956
3051.326578124668,0.9139072781405422,0.9032906849423261,0.01061659319821602
3054.4633467692624,0.6553738203550226,0.23826766139380037,0.41710615896122216
3059.0462929531554,1.0826790801881596,1.0682444375254456,0.014434642662713904
3060.4743612433635,0.1542228887324666,0.0014215732978338836,0.1528013154346327
3061.1336031726755,0.39204044073596656,0.2604317713542139,0.13160866938175264
3067.488562361243,0.026040154475734524,0.023112641342965534,0.0029275131327689908
3074.9063471946765,0.029197827858774252,8.779534522048376e-05,0.02911003251355377
3080.452581134127,0.05396466728317885,0.013034516967530227,0.040930150315648624
3085.3749013976044,0.13222188152262873,0.00018254921742529384,0.13203933230520343
3090.966653774998,0.1760911398049633,0.0014140114748146736,0.17467712833014862
3093.2117539764267,0.4752170324614947,0.4315017861639411,0.04371524629755362
3107.149414378564,0.23846331830780912,0.012421167252541014,0.2260421510552681
3111.01066420321,0.0011326480358498417,0.0004775514837654074,0.0006550965520844344
3113.4669836681273,0.1305804719021318,3.240461739166092e-06,0.13057723144039263
3115.1169105304666,0.08413379425683541,0.0006245343702705031,0.08350925988656491
3121.6735322959858,0.40942067615186156,0.062222734423599595,0.34719794172826196
3123.857692089184,0.39359870341476655,0.058890768332962494,0.3347079350818041
3146.0768255690073,0.14619633410449204,0.011321646540931624,0.1348746875635604
