frequency_cm1,total_intensity,isotropic_intensity,anisotropic_intensity
1.4449930993201947,0.0,0.0,0.0
0.8666686872756484,0.0,0.0,0.0
1.2227354130129512e-05,0.0,0.0,0.0
1.0084174160996662e-05,0.0,0.0,0.0
8.48954095804809e-06,0.0,0.0,0.0
1.694404978754245,0.0,0.0,0.0
2.859546879714174,0.0,0.0,0.0
8.924631183317661,0.001801560574387465,3.378866850196092e-05,0.001767771905885504
12.745124604967815,0.0011694306820128437,3.303238232161255e-05,0.001136398299691231
21.66232986413016,0.002482789597698716,1.4383884188430248e-06,0.002481351209279873
29.76401442211334,0.007997864151484837,0.00011954832944833953,0.007878315822036498
34.87365562499924,0.0019455363895675272,0.00014017820573778244,0.0018053581838297448
35.74453256329256,0.0058380771430790864,2.4093126612454583e-06,0.005835667830417841
48.231098993190464,0.0186089992659121,1.0636585764880114e-05,0.01859836268014722
49.127125564559464,0.0012737804321220482,0.00011293409958939942,0.0011608463325326487
54.11404716757855,0.0016429806361277382,2.705035015062712e-05,0.0016159302859771111
57.815041863255246,0.0025394015456052053,2.26225336848906e-06,0.002537139292236716
65.33295166315666,0.0010406803809972886,0.00025169839618157573,0.0007889819848157129
91.96623537813693,0.0008284197858366088,8.621694463472652e-07,0.0008275576163902616
97.78971761716791,0.0007762399697091647,0.00011235044711116432,0.0006638895225980004
103.21514332810058,0.0006767412133120521,0.00024129793293471073,0.0004354432803773413
104.3400131909577,0.0005446611265530176,0.00032289749875154126,0.00022176362780147637
121.109583410212,0.0010736280720287737,1.3541865605739753e-05,0.0010600862064230338
143.4237476165828,0.007614347340940353,0.004698566088774452,0.002915781252165901
145.2516294924284,0.003839084456711551,0.002910459552659007,0.0009286249040525443
151.48501275273316,0.0002607334440453061,6.825885211778964e-05,0.00019247459192751643
156.57032073871673,0.0013114333937690242,0.0007503062176773098,0.0005611271760917145
159.1353128870689,0.0004576243973302926,0.0001143376714866166,0.000343286725843676
168.10037406343525,0.0015224136258751297,0.0005692607137962932,0.0009531529120788366
174.98134519855483,0.0076725106026808215,0.005867329767057162,0.0018051808356236599
191.76473072739176,0.006463727829347461,0.002782518155486901,0.0036812096738605598
202.97359026101452,0.008841354997230816,0.0015915477637051274,0.007249807233525689
234.54293687719192,0.0017991392318717472,0.0002455311531897096,0.0015536080786820376
246.08679960164392,2.303043587737608e-05,5.4945966738876e-06,1.753583920348848e-05
246.18486052985423,4.5677889342100644e-05,5.529331496196001e-06,4.0148557845904645e-05
260.09423432054774,0.003327992890757323,0.0010949419999985491,0.002233050890758774
275.4740910738897,0.0051342519025644965,0.0018993280045853326,0.003234923897979164
294.51023742628325,0.001857567732094442,0.00048404104014893365,0.0013735266919455084
304.35663056649275,0.012605454341008168,0.005690689820226589,0.00691476452078158
307.0475216532956,0.0012689242709321097,1.2575472947371544e-06,0.0012676667236373724
350.5827507765424,0.006859597259546258,0.0031255180181521676,0.003734079241394091
388.77954932545606,0.0019649020739417027,0.0007747512154306888,0.001190150858511014
423.76413624282304,0.0007754546530851523,0.00021591881573561952,0.0005595358373495328
426.6226993545183,0.0025179371010005396,0.0008880486789416723,0.0016298884220588671
432.7930896125042,0.0007590501537390666,0.0005911640748194058,0.00016788607891966078
451.3236784835704,0.00045722488081453204,3.237414005558842e-05,0.0004248507407589436
473.18779795460887,0.0033271760001437095,0.00019564416292025902,0.0031315318372234506
488.74161100093806,0.010081210662701217,0.005683214415977691,0.0043979962467235265
500.85391699704434,0.0031721572431449227,0.0012454711886537258,0.0019266860544911966
515.3246556583335,0.0024792531728570774,0.00024116575388276326,0.002238087418974314
539.1927459313116,0.004059827220350657,0.0003498710361962498,0.0037099561841544074
570.1169782061528,0.004812999678827149,0.0016202469542485856,0.003192752724578563
593.7518758504349,0.0030382063592350344,0.00030252573749075146,0.002735680621744283
629.4533666344877,0.013458585866722331,0.0001283378494044166,0.013330248017317916
718.2484858342606,9.771259710761276e-05,1.818908744815742e-10,9.771241521673827e-05
729.9526059111233,0.00028998531523963207,3.7115294437518305e-05,0.00025287002080211376
730.1119565356761,0.0002030892631839678,5.57872581987351e-06,0.0001975105373640943
737.1513671711178,0.004006232151142536,0.0029780521652958813,0.001028179985846655
738.2363614236411,0.00042470827078759573,2.562927953789786e-05,0.00039907899124969786
749.6165342355762,0.06165806083451117,0.056303456679769534,0.005354604154741635
759.983183102695,0.003321150845940822,0.0018788763083222796,0.0014422745376185425
760.8559829957069,0.0035851914119587993,0.003176214915503764,0.000408976496455035
791.3948472749629,0.010230832472970732,0.005501233286541496,0.004729599186429237
801.7579318283596,0.0018452666785570798,4.5702565950885695e-05,0.0017995641126061941
804.0197554083293,0.0015655577529176854,0.0002337919828005771,0.0013317657701171083
830.6037672534005,0.009542222622542852,0.0022706533688918997,0.007271569253650952
860.5616028822051,0.005383653097323886,2.2012600582162445e-05,0.005361640496741724
872.5479325268903,0.0010156975229111264,0.0001896419952554434,0.000826055527655683
876.9497826464699,0.001129113113512548,0.0005745367867661971,0.0005545763267463509
903.5136746255978,0.005351155462486251,1.0636347068975321e-05,0.005340519115417276
908.7671447936436,0.05913068428931771,0.0370258601562985,0.022104824133019205
912.471565111144,0.008145167973893419,0.0012042258477832975,0.006940942126110121
940.1936177534747,0.006412411743805199,0.004816312278640298,0.0015960994651649004
953.8922799020709,0.01462887085550733,0.011927508471198429,0.0027013623843089004
958.7770218974018,0.0012727240047921563,4.486743978211048e-05,0.0012278565650100457
959.4042425028698,0.004228325619113219,0.0030892616541805737,0.0011390639649326451
1003.2901245974135,0.0005173711283092211,6.940132474369815e-05,0.0004479698035655229
1018.5909313088673,0.002190520715663073,0.0018649242806859437,0.00032559643497712934
1019.4222992256404,0.0016662452676198501,0.0011230170097467553,0.0005432282578730948
1027.1488779815372,0.07387266840939846,0.0680199777760525,0.005852690633345962
1028.3704661948536,0.09778139806322525,0.08805779696931963,0.009723601093905623
1032.5912429053294,0.001782317562530041,0.00044900766495751317,0.001333309897572528
1033.6474275559276,0.0008248148952497495,0.00023881699003792692,0.0005859979052118226
1036.5432163471228,0.000979365223299517,0.0003651841426133333,0.0006141810806861836
1037.6953617091417,0.0020303406019122213,0.0010981507168853902,0.000932189885026831
1060.685671505215,0.0863678488577836,0.07646657701964765,0.009901271838135951
1066.6512515725403,0.019218509861358344,0.00011166610480343307,0.01910684375655491
1068.29810653999,0.022891168278478716,0.00022724779017030313,0.02266392048830841
1072.2174774363746,0.010919990819965655,0.001394885334915451,0.009525105485050204
1081.4586931551923,0.08293969526860348,0.025654986164961792,0.05728470910364168
1088.382973720151,0.008104569337083402,0.003208017322595559,0.0048965520144878425
1088.9289294603561,0.004840252092294257,0.0027361651360862725,0.002104086956207984
1092.3298720871267,0.05112279365208219,0.0012511810322408223,0.04987161261984136
1093.3210658751157,0.0468678885888611,0.009559135304538871,0.03730875328432223
1102.86199135434,0.01882653325721987,0.0001412923263412267,0.018685240930878644
1107.4355520680276,0.0055028349052350725,1.0307373597478984e-05,0.005492527531637594
1108.9593126101279,0.013998900081288354,3.899122399777376e-09,0.013998896182165954
1154.3605304420769,0.1495920047239081,0.10099815833770849,0.04859384638619961
1154.9865086887844,0.10483331231378729,0.06918139668388586,0.03565191562990143
1173.4400290391702,0.01142961689129762,3.7289235714081132e-06,0.011425887967726213
1193.2368570160522,0.03200110746520106,0.017080296539051465,0.01492081092614959
1197.2961175127145,0.004452738479031443,0.001417115021465669,0.0030356234575657746
1197.9276380947836,0.005290307728870313,1.2051332198599431e-05,0.005278256396671714
1225.465770058177,0.0015167460409603994,3.616109542621788e-05,0.0014805849455341814
1226.0588695075608,0.0039441395030916,0.000648136142832508,0.003296003360259092
1241.4771417912027,0.0005821702168738938,9.408067654900365e-05,0.00048808954032489006
1242.0254079158442,0.000832276103657419,1.6912312914301565e-07,0.000832106980528276
1254.8369602300374,0.10944215262810895,0.09541773358267341,0.01402441904543554
1268.9738685324241,0.003725744321726033,0.0030253065549640475,0.0007004377667619855
1269.5269466421769,0.003886795051278983,0.0012424110196255088,0.002644384031653474
1288.9085396594448,0.0049567751042747625,0.0009570771796397163,0.0039996979246350465
1289.9295213002586,0.002977422323637998,0.001717971474202407,0.0012594508494355912
1304.146588004124,0.006122673796653038,0.001593217859573695,0.004529455937079343
1306.0225579519167,0.003561209100736489,0.00014369839477033135,0.003417510705966158
1308.2376403051544,0.009517071670453745,0.006652976169416178,0.0028640955010375666
1323.1002436709225,0.024426634607653812,0.009955829873577635,0.014470804734076179
1328.0923768286814,0.0771878545223887,0.0008020812609972237,0.07638577326139148
1328.389496215377,0.08104578960354397,0.00160097134647897,0.07944481825706501
1330.757457566036,0.048960754471653066,0.00012696519144817902,0.04883378928020489
1333.4804969611123,0.016989954287374882,0.005539636921479091,0.011450317365895793
1335.3879580241019,0.004584506750144428,0.002214549043033723,0.0023699577071107044
1336.2251941889062,0.009346631786592428,0.004067786278585522,0.005278845508006906
1338.108118405072,0.00042718894176055485,0.00015200188144565008,0.00027518706031490474
1341.0499980187533,0.012567016284457787,0.002594480695981405,0.009972535588476382
1342.0199008044099,0.007259692176641518,0.0008497727067145175,0.006409919469927001
1345.1676714333591,0.009489801084849205,0.0035642054433090166,0.005925595641540188
1357.8297240716913,0.013550669707089999,0.002309938692744117,0.011240731014345882
1381.9839506849974,0.003536293143107199,0.00011466263750630959,0.0034216305056008894
1382.585810619537,0.004355220828442495,1.95512716737924e-05,0.004335669556768703
1409.609308208073,0.001429048143240082,0.000232444802987654,0.0011966033402524279
1409.956573929287,0.0002619109578087444,1.096859907151885e-06,0.0002608140979015925
1413.4652045195035,0.0018025754870106393,0.00039291824796518774,0.0014096572390454515
1413.5271539236185,0.001990124298956673,0.001726157316598654,0.0002639669823580189
1421.5712937042192,0.010542506337079545,0.0002477906117773387,0.010294715725302207
1421.6462192957667,0.009264265001179868,0.0003096246595814196,0.008954640341598447
1432.2451876616983,0.008111802856882715,0.002573434315105659,0.005538368541777057
1434.750227421605,0.0027853024129032506,0.0008146722222086027,0.001970630190694648
1480.7877721600064,0.007421774371182707,0.0005245909577330232,0.006897183413449684
1481.0612928555634,0.0025494522678878194,0.0013645914649472522,0.0011848608029405674
1481.8733746499709,0.02733958469096718,0.00047188771892651125,0.026867696972040667
1482.1910473229739,0.028671662764308853,0.0010628090116011504,0.0276088537527077
1485.2229755168642,0.0836082250926701,0.002857690692290545,0.08075053440037956
1485.241266423612,0.11017407054737056,0.00847422630788858,0.10169984423948199
1489.665271841048,0.001224066379823644,0.0006153381476532845,0.0006087282321703598
1489.9560568144625,0.002334741341088184,0.0014015360047622961,0.000933205336325888
1493.9615160722417,0.026969384759013698,1.9605649373126126e-07,0.026969188702519967
1493.9843802518153,0.027787301482914768,2.126886549277789e-05,0.027766032617421988
1496.4410638330946,0.0346284451829082,0.001900187016345742,0.03272825816656246
1496.4686503877674,0.04129734704774106,0.004904636195243288,0.03639271085249777
1500.7448504237889,0.014545488475634569,0.002479949863868229,0.01206553861176634
1501.0887091533373,0.014782050411694883,0.0014832707164713157,0.013298779695223566
1503.3381100409167,0.007099382869407608,0.0026379380878933344,0.004461444781514274
1505.4336244659544,0.006452407687804684,1.0521389875534183e-05,0.00644188629792915
1505.7206675862928,0.004178569614198765,0.0002659595872282888,0.003912610026970476
1512.0240826999868,0.01758479012154548,0.0005679127798153678,0.017016877341730113
1520.329569211309,0.020486166296021725,0.00019240296140464816,0.020293763334617076
1540.1113642324456,0.0020102299281379264,0.000609444520795389,0.0014007854073425374
1668.881574803601,0.06702616752387962,0.00541669765635854,0.06160946986752108
1676.5195933053305,0.08340738292996212,0.008562412956116344,0.07484496997384578
3023.3972512922014,0.41761494961084494,0.40232968783596285,0.015285261774882092
3023.772768808206,0.25231962258332646,0.2350723457064052,0.017247276876921288
3026.247562144224,1.1980700903302548,1.1789709597923705,0.019099130537884253
3026.5185253788277,0.6053430497626968,0.5706799405712526,0.0346631091914442
3027.5685020404467,0.47080250480572694,0.44866126697496783,0.022141237830759098
3027.6745565528063,1.0163396848674335,0.9651170195293385,0.051222665338095025
3036.489721904999,0.17293756138028704,0.14415957756896114,0.028777983811325902
3037.0350667035045,0.21680892584827677,0.20181812267467314,0.014990803173603637
3042.0779383322924,0.3559445830329256,0.3271603305868819,0.028784252446043733
3042.1874455186257,0.4298897723071616,0.38425714965503727,0.04563262265212431
3046.3463565086126,0.7808545906959401,0.00688271391738278,0.7739718767785573
3047.0424012934545,0.8158242971919331,0.008634247975738439,0.8071900492161946
3050.360498872301,0.8982000221525893,0.8876966468727909,0.010503375279798388
3050.457038292138,0.8817991166965625,0.8740074756657313,0.007791641030831138
3053.4946137969896,0.052339980369652116,0.0007985579578709191,0.051541422411781196
3053.9738439813195,0.08467697740781921,0.04333535845305432,0.04134161895476489
3061.48173846966,0.49702253778542194,0.3856641243122638,0.11135841347315809
3062.6875157922173,0.2213390459267785,0.03230286775911802,0.1890361781676605
3065.6312602172898,0.290993930690592,0.18262828440146378,0.10836564628912819
3067.818435141376,0.8815129500828864,0.8053558750516739,0.07615707503121252
3076.65699987644,0.13240816750301082,0.11520349136062914,0.017204676142381685
3077.8760549978524,0.10691062678489584,0.06918219160287224,0.037728435182023595
3078.7461505345545,0.08707010503115863,0.007654419946865813,0.07941568508429281
3079.1924507586273,0.1949075834487308,0.18275491052711113,0.012152672921619685
3088.2406745751236,0.045716284915863464,0.0014894830351129245,0.04422680188075054
3088.369570215169,0.0403233922047664,0.007852053003042259,0.03247133920172414
3111.044093957154,0.3339154314579548,0.08620321000225761,0.2477122214556972
3111.1935363216016,0.19506324186714533,0.07074206416028592,0.12432117770685941
3113.464052353701,0.13799768713003324,2.4902312025664515e-05,0.13797278481800757
3113.527534356,0.13645153264258442,0.0002091966337808098,0.13624233600880362
3121.609767640344,0.41979700035232825,0.0637305310764686,0.35606646927585967
3121.770836576911,0.4101757140012521,0.0628192656183703,0.34735644838288177
3131.8875581502616,0.05199577231242591,0.0008186171634921118,0.0511771551489338
3139.0213321654346,0.10022996144430366,0.0280967344419338,0.07213322700236986
3198.9927507698217,0.1857739399783084,0.018574479416917197,0.1671994605613912
3208.0777430385756,0.4142892361773496,0.003136119568118777,0.4111531166092308
3219.037678359214,0.11184922780208215,0.0033058341783781166,0.10854339362370403
3225.637571275109,0.8711888661057852,0.7314468351283718,0.13974203097741336
3235.4136512491236,0.6368861720270419,0.5120220773745099,0.12486409465253198
