frequency_cm1,total_intensity,isotropic_intensity,anisotropic_intensity
1.9663974665834516e-05,0.0,0.0,0.0
1.7298366226078058e-05,0.0,0.0,0.0
2.7151542955777453e-05,0.0,0.0,0.0
0.8805763319670556,0.0,0.0,0.0
1.0032343663631846,0.0,0.0,0.0
4.9646809050907486,0.0,0.0,0.0
20.609641929110754,0.0006475563725940252,1.2681641055161035e-09,0.0006475551044299196
25.263894573522528,0.0005049800022071351,6.215993370185091e-09,0.0005049737862137649
34.393328805922955,0.00016036519588388435,1.1272080237325397e-06,0.00015923798786015181
47.30318297041816,0.0014673089224162099,6.303880710621954e-09,0.0014673026185354993
63.8630971047292,0.00015952707832186133,1.0438693359448974e-09,0.0001595260344525254
89.08905448796902,0.00013916214228531146,1.8718246911908491e-07,0.00013897495981619236
91.91317350982607,0.00011235536875954295,1.2350522332494191e-05,0.00010000484642704876
101.02451039030463,1.686098330168529e-05,2.1505915811349977e-08,1.683947738587394e-05
121.7232080085588,6.724664708148276e-06,5.581691162760425e-08,6.668847796520672e-06
137.32187035624136,0.00021067275318366183,1.3461923943252013e-07,0.00021053813394422932
162.27806318993706,7.615465864518463e-05,4.2034725004648735e-05,3.4119933640535905e-05
163.15372811558152,0.007864189553206042,0.005101744786049742,0.002762444767156301
169.65102472912346,5.099219039329532e-05,1.818748441876131e-05,3.280470597453401e-05
186.52197477654454,0.015314643786124064,0.009154156266098402,0.006160487520025663
246.24548462789627,2.033783213317359e-05,5.330487551959931e-10,2.0337299084418393e-05
262.66035162575594,0.0010120498023526241,1.694588588906908e-05,0.000995103916463555
338.29993000071386,0.0005750073648722775,0.0002881193153566481,0.00028688804951562934
364.47671780169924,0.00028097172951977817,1.3369263409873835e-05,0.00026760246610990434
438.7975465742018,0.0008156136628688771,0.0003447111880139364,0.00047090247485494067
472.7719340155865,0.0007025712180748065,6.318920968860389e-07,0.0007019393259779205
475.7889522871393,0.0011850215186030807,0.0006608468430363207,0.0005241746755667598
505.2614675654159,0.002026179279919214,0.0012993381190936325,0.0007268411608255818
607.332189496286,0.023018581144679515,0.012812154891799682,0.010206426252879833
723.7789391770838,0.00023591883533249428,1.1712076529690627e-10,0.000235918718211729
728.3880519356566,6.15025918129226e-05,2.947126927135539e-06,5.8555464885787056e-05
733.4835845765791,5.105914089115594e-05,9.927707482544205e-08,5.0959863816330495e-05
751.0273463695843,0.0002898226735454684,5.767093475244756e-10,0.00028982209683612085
786.3351465654353,0.00014176023347391796,4.4871276613557046e-07,0.0001413115207077824
837.5172819209471,0.0007706576508986936,3.428201856396811e-05,0.0007363756323347254
845.998227375083,0.04129227659489455,0.03223092842626535,0.009061348168629206
899.5441012896434,0.0003947616726016813,2.121949486889684e-06,0.00039263972311479164
908.2575880570561,0.03234845180230586,0.019628282325154206,0.012720169477151657
951.0459895799831,0.011574626069555316,0.006203360793399809,0.0053712652761555065
959.2740695453343,0.0014705837147599877,5.7242608828363855e-06,0.0014648594538771514
1006.2009470137103,0.0005258064471034198,5.318573831079839e-07,0.0005252745897203118
1014.2374770507441,0.0014494019041020323,0.0009028172890624707,0.0005465846150395617
1032.0647514460534,0.0010984500638114981,2.481362450400243e-07,0.0010982019275664581
1048.680424889471,0.00021972259379150218,9.45747838680467e-09,0.00021971313631311538
1051.6502806495691,0.006348790956905465,0.0017190610208337692,0.004629729936071695
1074.1300850764671,0.011856822824474011,0.005150219616962496,0.006706603207511515
1083.7988239847436,0.03566070256795364,5.992899260509456e-05,0.03560077357534854
1090.2799861105989,0.042491604578049014,3.028758018619295e-05,0.04246131699786282
1091.8161302980202,0.0044981384264468184,0.0009720950940512954,0.003526043332395523
1108.697326236885,0.04015478881769303,0.02280291586696822,0.01735187295072481
1152.9446084981946,0.005280877542928761,6.100354160879621e-07,0.0052802675075126725
1154.0563351016124,0.1668561836800134,0.10693138345098262,0.05992480022903078
1184.610690941364,0.027599472030014685,0.008819452556498924,0.018780019473515763
1209.1251515381305,0.007161108915485722,6.273536067154434e-07,0.007160481561879007
1232.1147968034188,0.001961374647367768,0.00016192459443845704,0.001799450052929311
1239.4691720217659,0.0007353217548892808,1.2723703782110238e-07,0.0007351945178514597
1268.5061704940692,0.0009742427538449124,4.727764371778045e-06,0.0009695149894731344
1273.2319188703732,0.0020313780254039397,2.9957532169655914e-08,0.00203134806787177
1302.517421343398,0.00040620060927453453,6.833986682579987e-07,0.00040551721060627655
1304.5061153757788,0.0022509051290730913,9.157555829731252e-05,0.002159329570775779
1322.1476531283506,0.045081081852663726,7.901466623779022e-10,0.04508108106251706
1327.1077378807338,0.07983473513894385,1.1285745574995919e-07,0.07983462228148809
1331.0702811722017,0.0008161016207540623,1.0450022033932499e-06,0.000815056618550669
1336.6807738276157,0.00010461624793207164,1.1551533978644992e-07,0.0001045007325922852
1337.6973619637297,0.003385341247034785,6.270014287430135e-07,0.003384714245606042
1340.605614568665,0.0008054649230573077,7.515585266866283e-05,0.0007303090703886448
1371.8355016482888,0.004331987763250915,0.0002762630979425161,0.0040557246653084
1386.7908137450222,0.0012754964611820835,9.483378103465297e-05,0.0011806626801474306
1401.3203194777805,0.00042412344377327956,1.3311404435848325e-06,0.0004227923033296947
1412.3267420022617,0.0006018536651722015,0.0004191249182675078,0.00018272874690469367
1415.1572284108172,0.006765047395090791,0.0009022722849551536,0.005862775110135638
1420.6391503442655,0.002904508406367896,0.00037797310175047586,0.00252653530461742
1421.5863169621018,0.006204667755469135,0.00022692782921897577,0.005977739926250159
1448.9424897857145,0.01014026618321931,1.7678220000472947e-06,0.010138498361219262
1464.2128881214971,0.031916272123563565,0.0036303613601231305,0.028285910763440433
1476.6806237448072,0.020933658344493095,6.945751725360668e-09,0.02093365139874137
1480.7696176499803,0.00032684218667876575,0.00010993652484522521,0.00021690566183354054
1480.991498463317,0.0007433678800912074,0.00017207655413602242,0.000571291325955185
1484.193205429834,0.15802950913566863,0.008204042491854942,0.1498254666438137
1484.2856644347687,0.0012085783858731115,0.0002162123310097089,0.0009923660548634026
1488.0108746980086,0.04399886303863945,0.0017917935370758652,0.04220706950156359
1493.130950624555,0.0013579071943863473,9.005814894530627e-05,0.001267849045441041
1493.7718977652187,0.027006800300627534,4.42543358139135e-07,0.027006357757269395
1498.7935604722086,0.004523609817364695,0.00013407988331754576,0.004389529934047149
1503.548407726176,0.001325068317402155,0.00023242628321116772,0.0010926420341909873
1506.2251193397688,0.0011913958609744448,2.022266161992366e-06,0.0011893735948124524
1815.7949836582604,0.048781668434667566,0.011549362236662385,0.03723230619800518
3020.694098192702,0.13023320582465528,0.12303133475365563,0.007201871070999645
3022.3656306427206,0.004090866868710619,0.0013997857217558885,0.002691081146954731
3024.1840520361116,0.002823808328798318,0.0019372629501861198,0.0008865453786121982
3024.754222811024,2.560139568244967,2.4851216686618494,0.07501789958311778
3030.549791650836,0.023845043783295047,0.018788089316847095,0.005056954466447951
3033.593861127088,0.8577295919943076,0.8169753981774397,0.040754193816868005
3037.006687062673,0.13186462257688128,0.12135226268618943,0.010512359890691849
3041.0800672231653,0.3840666252771688,0.35393363431070435,0.030132990966464414
3043.776551336177,1.2143459544294684,1.6094700380871008e-07,1.2143457934824646
3045.7103042989565,0.005290093089606555,1.2505795461958925e-06,0.005288842510060359
3049.641138077059,0.9120201418593266,0.9046547508818366,0.0073653909774900155
3050.4618259240283,0.15529587845826215,7.411460540696579e-06,0.15528846699772145
3059.5407231852496,0.0005493296053125649,3.633397443016775e-05,0.0005129956308823971
3062.5608739873037,0.2693700432034708,0.030269157811255974,0.23910088539221483
3062.892201476591,1.190115993059782,1.1726674363897207,0.01744855667006138
3064.5794913487844,0.01156394388572916,0.0010202517840391832,0.010543692101689976
3071.4896564263017,0.05616211683005783,1.6644131619651903e-06,0.056160452416895865
3080.4105826810955,0.04779137590709845,3.6211516884707083e-06,0.04778775475540998
3088.031358260742,0.015130814120510185,2.4401856619313947e-05,0.01510641226389087
3105.989050357023,0.04636040819135733,6.307278224719213e-06,0.04635410091313261
3112.60408063785,0.1293036738616986,3.9648580794680996e-05,0.12926402528090392
3120.6612975413573,0.40964252610141616,0.06236970226107084,0.3472728238403453
3123.541645436335,0.22633829282748835,3.3226656704494075e-06,0.2263349701618179
3175.7284900378627,0.3267694136625688,0.04901776370642878,0.27775164995614
