frequency_cm1,total_intensity,isotropic_intensity,anisotropic_intensity
1.1102988800366422,0.0,0.0,0.0
0.9840605215538156,0.0,0.0,0.0
2.194031512990982e-05,0.0,0.0,0.0
2.0088864354653195e-05,0.0,0.0,0.0
2.5832818970599432e-05,0.0,0.0,0.0
2.786590456364752,0.0,0.0,0.0
15.980694860439396,0.008849017360112277,1.7898150603684394e-06,0.008847227545051909
34.671849856154736,0.001030115853977616,3.2656993319371117e-06,0.0010268501546456788
39.955795900970195,0.0017680886817285951,7.274997167269965e-05,0.0016953387100558956
52.03337287969685,0.0012024161483224873,2.4504570292732438e-08,0.0012023916437521945
65.5596577579383,0.000575073596984337,7.016505981214975e-07,0.0005743719463862155
89.59479025828146,0.0012588990540868222,0.00031374137429920136,0.0009451576797876208
94.934389078132,0.004787944084589897,1.2954325830399652e-06,0.0047866486520068575
124.78283868452819,0.003018522768790226,1.1340917116977396e-05,0.0030071818516732487
142.49285081420493,0.0006025642552410862,3.7347267400126445e-06,0.0005988295285010736
164.75033784768144,7.296728149108133e-05,5.176787326394831e-06,6.77904941646865e-05
170.450462426634,0.007925740316793412,0.004947479053078294,0.0029782612637151173
183.0418821005276,0.014084345609038618,0.009805221374109553,0.0042791242349290645
214.274235897749,0.0014280091132970213,1.7165507543787657e-05,0.0014108436057532338
245.8815269448695,9.242142901049183e-06,7.58573833758252e-08,9.166285517673357e-06
263.0722455321701,0.002676088220557024,8.869644961562298e-07,0.0026752012560608677
321.2567092100102,0.0023765345131924074,0.0009577594155388007,0.001418775097653607
357.66284060637844,0.001265579627711805,0.00031847085958042534,0.0009471087681313796
378.5987041331377,0.010020055024797771,4.6938168952047175e-06,0.010015361207902567
426.79471748926693,0.0002478713087610475,1.5368544836276717e-05,0.00023250276392477076
457.0119516610654,0.010485245945809702,0.0043907600296287045,0.006094485916180998
491.8664720741143,7.234838750125132e-05,5.755108094108139e-07,7.17728766918405e-05
523.7641342025221,0.0009445692831704795,8.966688003002263e-05,0.0008549024031404568
525.4800985653761,0.0006266054269465943,5.784240922978782e-06,0.0006208211860236155
580.932949838004,0.03747290234468591,0.015921753842273102,0.02155114850241281
595.165329724032,0.008616084237023838,7.284427795259782e-08,0.008616011392745884
652.2147609407579,0.027966855636614867,0.0003286163850566658,0.0276382392515582
660.8554336697094,0.10088082047274623,0.049907026921331955,0.05097379355141427
727.7376016762465,0.0010687686819773326,2.1005208494955204e-06,0.001066668161127837
735.8231050613475,0.0007438200432706151,1.2886611918998342e-07,0.0007436911771514251
773.9080599118315,0.012426046659563431,5.3661034594601304e-06,0.012420680556103972
779.8776141017242,0.00012504475462042587,6.755529025973498e-07,0.00012436920171782852
816.9432479465471,0.04667055893431636,0.0313482081350998,0.015322350799216563
837.3013904978059,0.0028977011973009533,7.068705319418229e-08,0.002897630510247759
860.7844331165,0.001099188478766504,3.530650182116255e-05,0.0010638819769453415
874.641133203013,0.00036700985436295225,5.494337347430017e-05,0.0003120664808886521
882.9210128986598,0.0723633294721659,0.06310151517861019,0.0092618142935557
899.6072711235569,0.02862098346006149,1.0393454983673741e-05,0.02861059000507782
913.4670888846027,0.08433861526491529,0.06225628510576058,0.022082330159154714
972.7139644172007,0.13488879822630084,0.007112497187141818,0.12777630103915902
977.8774707148899,0.002051162537615373,5.002958462164379e-05,0.002001132952993729
992.8270672752506,0.0003582784184714302,2.914273663189803e-06,0.0003553641448082404
1000.443901574499,0.00017283749092336575,1.2897199134281109e-05,0.00015994029178908464
1028.3208765439938,0.006996363425387355,0.00015177428042787444,0.00684458914495948
1034.8559889743099,0.00263617065468405,0.001150386677653437,0.001485783977030613
1043.3891823031083,0.00431312958666743,0.0004412029989793752,0.0038719265876880544
1070.091550354437,0.024339281311383354,0.0008904023202956216,0.023448878991087732
1087.5037584639103,0.04711242296051686,0.00846968238488667,0.03864274057563019
1096.3254080952354,0.011325016760073744,0.0007526756146091777,0.010572341145464566
1143.4784361107181,0.02626089593811582,0.00805069337466754,0.018210202563448283
1155.0340432150667,0.24069199638333338,0.138080491312589,0.10261150507074437
1158.1561536980305,1.2398362564307974,0.5498049943997751,0.6900312620310223
1186.9720150396768,0.001448546981811379,8.549744348161913e-06,0.001439997237463217
1204.7011763809326,0.6817990331957098,0.33968417905752146,0.3421148541381883
1238.0460493577805,0.5129227606864675,0.21867106438704317,0.29425169629942427
1239.1502764820732,0.003869545119129421,1.0538372016205458e-06,0.0038684912819278005
1271.487527531171,0.10396540624443151,0.03385992989550709,0.07010547634892442
1281.0217132387797,1.4688270621768136,0.6627499448757225,0.8060771173010912
1296.343658231954,0.010338927047448166,0.0018351085443754805,0.008503818503072686
1301.8602306188388,0.01103591817111685,9.798692079632549e-09,0.01103590837242477
1326.1577942312135,0.04704342405631233,4.778849361660378e-05,0.046995635562695724
1327.8867425567812,0.060677384647930446,0.043007328151187435,0.01767005649674301
1336.2138479184434,0.18426852232036672,0.08270768955652533,0.10156083276384141
1336.9715599480694,0.016796514585898793,9.239304376038645e-05,0.016704121542138406
1353.3960714132222,0.0015232298180247756,1.5348256185964562e-05,0.0015078815618388111
1360.4366348940987,0.03815420367706582,0.01883877059311011,0.019315433083955703
1399.8795736052223,0.14709582520848288,0.10042798284180295,0.046667842366679944
1408.8344795771184,0.012502936266250545,2.366805344062706e-05,0.012479268212809917
1414.5573356024954,0.0031861996417741176,0.0006157795466212729,0.0025704200951528447
1437.0140283421401,0.01135483719045355,0.0009874090280505446,0.010367428162403006
1475.80135145389,0.3210827042981026,0.13966389577674046,0.18141880852136213
1482.9190970541995,0.0714900659765254,0.0073375236182755925,0.0641525423582498
1487.3807895530238,0.0022583640917025753,0.000375233945892097,0.0018831301458104785
1494.6985358626473,0.028162546545163657,2.671234076526709e-08,0.02816251983282289
1496.666038566135,0.02948142702427787,0.0013436533284035975,0.028137773695874273
1504.5168281194465,0.003928665114492914,0.0004984261314143408,0.003430238983078573
1516.7068669617822,0.009688651680351507,0.00011365682690576666,0.009574994853445741
1564.149021648029,0.05463242362231584,0.020804572017610126,0.033827851604705715
1648.3290548596415,1.001273556543822,0.3238361808672785,0.6774373756765436
1686.6383597492068,6.366084377559013,2.17753729475963,4.188547082799383
1721.3625326634542,7.191121560160285,3.3229511815394135,3.8681703786208717
1810.2201709007343,0.2492038131426213,0.10078328030226885,0.14842053284035245
3021.513634186314,0.14113969272423763,0.11822236294143058,0.02291732978280705
3028.859239655949,1.2353027397327871,1.211322530360444,0.023980209372343055
3043.314750786733,0.32011003129106325,0.2931357269988797,0.02697430429218354
3051.8411616878193,0.9911002848091078,0.9774211550148023,0.013679129794305528
3055.9736618118336,0.5159269605139895,3.391884470477838e-05,0.5158930416692846
3064.011107889191,0.19030810156984246,0.003487154690541526,0.18682094687930093
3064.7475777153086,0.37821972293696043,0.347497285431163,0.030722437505797447
3080.4659416863956,0.0868436787329638,1.09243498703035e-06,0.08684258629797677
3111.1819866111473,0.11796056824953205,9.100976247541088e-07,0.1179596581519073
3116.0005211921675,0.086560768799825,7.477154214273259e-06,0.08655329164561072
3124.5749121739987,0.44192399038698904,0.0754642673264728,0.3664597230605163
3178.8541660166065,0.1970009739268575,0.14669220772112518,0.050308766205732325
3198.9922013905352,0.3402901401716133,0.11125441152313287,0.2290357286484804
3207.143944724016,0.21413721422261411,0.0011638091211152225,0.2129734051014989
3224.8817614271825,0.32795445035236237,0.2458096135009078,0.08214483685145457
3231.370334792471,0.3356825057421068,0.22751496799773333,0.10816753774437345
3236.879143429411,0.6580154208556452,0.44908527490006417,0.20893014595558101
3801.8543548621255,0.8248146556002879,0.49882141543999436,0.3259932401602935
