frequency_cm1,total_intensity,isotropic_intensity,anisotropic_intensity
3.205690085902716,0.0,0.0,0.0
3.539218795649614e-05,0.0,0.0,0.0
2.3723468815073066e-05,0.0,0.0,0.0
2.7499853291017324e-05,0.0,0.0,0.0
0.7055890063737381,0.0,0.0,0.0
0.7931504463463364,0.0,0.0,0.0
9.368609561562554,3.569819827015667e-05,1.2174686969353116e-07,3.557645140046314e-05
14.70244111180142,0.00018927717995034863,1.1669164482877447e-06,0.0001881102635020609
18.555121928891616,0.001039458937088402,3.8677562415246594e-06,0.0010355911808468772
24.959204433046505,0.0009069297974325867,2.7778843306863155e-06,0.0009041519131019004
37.19804844082213,0.00013633280205929384,1.1986536627791945e-05,0.0001243462654315019
42.50621268141111,0.0008055064602650095,9.313041125573294e-06,0.0007961934191394362
51.129109473625064,0.00013572979714735105,6.498815929110441e-06,0.0001292309812182406
66.69374207013688,0.0003049836804941131,1.3719417551260895e-05,0.0002912642629428522
76.53437917084759,0.0007966025821505146,4.9715012504107654e-05,0.000746887569646407
83.06855013739427,0.0004113524975673303,0.00024480969308697764,0.00016654280448035266
98.09821839879548,0.00042950666117524364,6.738286181784236e-07,0.0004288328325570652
100.49157774940765,0.002029134046843869,0.000751647181700728,0.0012774868651431411
107.35497526856673,0.004391651361363287,0.0025567943063676624,0.0018348570549956249
121.88448149536379,0.007699659672356288,0.004761251252145322,0.002938408420210966
130.95292261800122,0.0011000265665543228,0.000718023156019758,0.0003820034105345648
134.23938618690505,0.0008413167539926092,0.0003978528240426439,0.00044346392994996524
140.62601056295148,0.0014894607039844777,0.0008804378555619522,0.0006090228484225255
155.08593219277196,0.0002069735009213805,3.957327061224831e-05,0.00016740023030913217
158.21059634372088,7.669736299179578e-06,3.731937022159884e-07,7.29654259696359e-06
174.03387852939753,2.7635244451073464e-05,1.8362112088303886e-06,2.5799033242243076e-05
175.19031658929435,4.901831333613348e-06,1.1536966476808061e-08,4.89029436713654e-06
193.58731844282178,0.00026785220683852055,1.863268880934902e-05,0.00024921951802917155
224.4579288316868,0.00037342878356572297,6.632173238030917e-05,0.0003071070511854138
244.7297639398745,0.00034471458480167907,0.00011391597221350807,0.000230798612588171
245.82448939673083,2.306940120918083e-05,1.4030203891265446e-07,2.2929099170268175e-05
272.21921647022305,7.489770022689624e-05,1.5209154196673535e-05,5.968854603022271e-05
329.5737995369262,0.0008005986631925995,0.00014421631011798778,0.0006563823530746117
352.05008569328186,0.008989260521086024,0.006542543176973801,0.0024467173441122237
362.26562794007924,0.0004366029803267625,3.046678229200083e-05,0.0004061361980347617
405.77831041833144,0.000658893595352063,4.69848436661603e-06,0.000654195110985447
438.0358445211456,0.002205167555617398,0.0004949581328701554,0.0017102094227472427
459.3752998648414,0.00032723701796509325,6.915241687681744e-05,0.00025808460108827584
491.59137208406946,0.0013499683323146894,0.0004821602293492839,0.0008678081029654056
513.8264530821689,0.001185650974623971,0.0007687624946974026,0.0004168884799265684
527.94367171267,0.0034329569591960473,0.0019570920361759838,0.0014758649230200633
590.9878159719084,0.0007508545107608697,1.2273838492073487e-05,0.0007385806722687963
703.49374977907,0.0034660963988533042,8.158730370171798e-05,0.0033845090951515862
727.8227225114207,7.747928020616119e-05,1.975242335309934e-05,5.7726856853061854e-05
728.4173262538247,4.574857541881665e-05,7.494293306987397e-07,4.499914608811791e-05
729.9840081920072,3.479974233341438e-05,2.1836876737234513e-06,3.261605465969093e-05
734.2100363439887,3.675189387761964e-05,2.790546513841418e-06,3.3961347363778226e-05
743.7048192317894,0.00014840923199744419,2.960845214878886e-07,0.0001481131474759563
760.6953204444628,7.039739974163431e-05,1.7946585791155882e-07,7.021793388372275e-05
786.0997576977112,0.00024310867768036773,1.1459218179053846e-06,0.00024196275586246235
806.8722087777619,0.008219003024174762,0.004139522348763056,0.004079480675411706
819.1778597775756,0.00015046242212619015,5.518410550454765e-07,0.00014991058107114466
857.7661826207025,0.0002357788929959376,1.0021922777259708e-05,0.00022575697021867788
884.9796465783159,0.04482519005901672,0.03381151842199022,0.011013671637026504
900.8435820740381,0.0003787343351760128,0.00015115222102190357,0.00022758211415410922
908.153021341599,0.03325943816412577,0.020271944990464422,0.012987493173661347
937.9540479692757,0.017862806057182427,0.007132513215973859,0.01073029284120857
945.3440961953542,5.1450109835189884e-05,6.70675106485418e-06,4.47433587703357e-05
988.6662062789551,0.00016526902391582595,6.623044356392307e-07,0.00016460671948018672
1005.9640196066638,0.002137927520386946,0.001239892121624088,0.0008980353987628583
1009.5486229381585,0.001949877633325154,0.0001561054181501198,0.0017937722151750344
1028.2884203953718,5.045177655549738e-05,7.224803244320448e-07,4.972929623106533e-05
1030.328823067896,0.0017280202579651727,6.151081362005075e-05,0.001666509444345122
1038.7868975305848,0.00830179638160511,0.0073832406468739824,0.0009185557347311275
1052.198495740329,0.012962946142247798,7.90993037836479e-06,0.012955036211869433
1059.6379981483055,0.00029867680576731376,2.5474265962632086e-06,0.0002961293791710506
1064.7694168770934,0.012365365343587693,0.009669753937320426,0.002695611406267267
1073.3505789304363,0.0022004010787412794,0.00046766288558603054,0.001732738193155249
1081.1169430072623,0.02070187016500937,0.0006125649823325649,0.020089305182676806
1088.6540176023454,0.10332402958327581,1.8923326290211113e-05,0.10330510625698561
1089.4543790702937,0.008496797431327606,3.559017128138881e-05,0.008461207260046217
1091.8263145585192,0.00024308693677027246,0.0001701646082904142,7.292232847985827e-05
1092.4077909553812,0.0030580453285116516,9.872862085544513e-06,0.003048172466426107
1097.7556115945956,0.014670265592338803,0.005308485459530358,0.009361780132808445
1121.6787605837703,0.01109041059859999,0.00236691376573158,0.008723496832868409
1130.3486816548464,0.06573375692872013,0.03817490609610359,0.027558850832616548
1143.0410496427835,0.003519356902831527,7.258576881142223e-06,0.0035120983259503847
1157.6125755797075,0.28512719069179937,0.16464660577173423,0.12048058492006516
1190.5359089729936,0.005945817377070208,0.0009670317351773268,0.004978785641892881
1204.8079190212302,0.014114620714618116,2.9897315015143343e-05,0.014084723399602973
1206.7402637431578,0.006283968089784845,0.005178735218834174,0.0011052328709506708
1221.2479673701764,0.0013629500427560287,2.2154577069940652e-05,0.001340795465686088
1221.895347343176,0.0004966887477948153,5.458981738849399e-05,0.00044209893040632136
1243.4929190666883,0.00043666429436094075,4.012039669455899e-06,0.00043265225469148487
1245.1919468061612,0.00048111697771136675,0.00011862995091887375,0.000362487026792493
1266.2199918924493,0.001262756774672245,1.5159965508476781e-06,0.0012612407781213975
1268.6851017162357,0.00027424578109126816,9.018432551281569e-05,0.0001840614555784525
1287.465367105074,0.0002438257208849993,6.613862372634582e-07,0.00024316433464773582
1292.262166150495,0.0005312229695647789,2.8409365215541842e-05,0.0005028136043492371
1305.3634362168712,0.004846545842834851,1.729744605632313e-07,0.004846372868374288
1316.0997516124212,0.0006325302759115017,0.0002482031166279009,0.0003843271592836008
1318.9702973252374,0.002718998543013298,5.304970970441532e-06,0.0027136935720428568
1324.3275245301832,0.1893312366906441,5.773190475804335e-07,0.18933065937159654
1328.207979866167,0.0005442220804447977,3.4250597919938402e-06,0.0005407970206528038
1329.4886089036627,0.00028822865973838807,3.683725721954612e-06,0.00028454493401643344
1333.133229358142,0.015546665672717072,0.000305088465908433,0.015241577206808639
1334.3916976536382,0.00910330317878806,8.908773371540365e-07,0.009102412301450907
1335.1964830337947,0.003990451348495767,5.507190748467691e-09,0.003990445841305018
1338.3653054019187,0.00010765251788668007,2.7528674625905788e-06,0.00010489965042408949
1338.568540922465,0.0005479784158579845,2.7522557712659667e-06,0.0005452261600867185
1340.9905112187225,0.000597830528099317,5.0996082475611595e-06,0.0005927309198517558
1363.4080055560164,0.0003884873137224345,0.00018520058053387328,0.0002032867331885612
1383.0330474204723,0.000500766379886432,6.419696832872029e-05,0.0004365694115577117
1396.0132141142678,0.001443397590738343,0.00016942984989599236,0.0012739677408423506
1402.750695963203,0.001157712793326555,0.00046314593037706834,0.0006945668629494868
1411.4625242184354,0.0013657781813574091,0.0008988250626188449,0.0004669531187385642
1413.4091424039157,0.0015695358227831567,0.0001100457697474775,0.001459490053035679
1418.5216895510794,0.0038365503586389603,0.0003259078286292507,0.0035106425300097097
1420.2592055581508,0.011183939856926284,0.0001567907816492092,0.011027149075277074
1421.435102356858,0.00018145382413286074,5.74808475815292e-05,0.00012397297655133152
1422.5319212746806,0.0010215542715862262,0.0005867590296290617,0.00043479524195716446
1432.726410874138,0.0049091334046072535,0.0015434413600139514,0.0033656920445933026
1460.474202285311,0.014378012206678488,5.885902321962344e-06,0.014372126304356525
1479.994862557945,0.0001912247202873987,6.592634653615044e-07,0.0001905654568220372
1480.1951348335388,0.00211615457156078,9.85912192780715e-05,0.002017563352282708
1481.5045453608423,0.014457703752860927,0.0001473917977910373,0.01431031195506989
1482.014614094899,0.03205682485978242,0.0012052825299052345,0.030851542329877187
1482.1687505450159,0.0016288504743552734,0.00042638242639849214,0.0012024680479567813
1483.7454260406587,0.0020711683179117178,0.0007330334532591802,0.0013381348646525377
1484.6367921037338,0.18631826799971588,0.01651927289555307,0.1697989951041628
1485.854079708148,0.11817856633395457,0.006646836476626526,0.11153172985732805
1488.8137188906046,0.002127735986381264,2.1884721734405722e-05,0.0021058512646468584
1490.7003286973202,0.04622126023457367,0.003688406550129765,0.04253285368444391
1492.3194207101014,0.010597088810789957,0.0006359937975571472,0.00996109501323281
1493.7694043042895,0.02709462971756752,3.1425143431849785e-07,0.027094315466133202
1496.0313450487854,0.0006300388844252271,0.00018750463284464104,0.0004425342515805861
1499.6861871609235,0.0032920640549285304,0.00016561802227482144,0.003126446032653709
1502.9032358291392,0.0008650673837714701,0.0003480347939297021,0.000517032589841768
1505.2554110658093,0.0006947250015830464,1.0910852227087053e-05,0.0006838141493559594
1506.0486130891259,0.006033890452487442,0.0004748683733158309,0.0055590220791716105
1506.4948151613396,0.0006422702826167327,0.00023783082395446574,0.0004044394586622669
1813.675037911724,0.02711453771342532,0.02043076606130366,0.006683771652121659
3021.0853339839196,0.08151943631722804,0.07740191891594426,0.004117517401283771
3021.586669057483,0.011323271486815237,0.011070522386560708,0.00025274910025452856
3021.7833667290024,0.015683473336905274,0.015505982380200766,0.00017749095670450678
3022.697805353907,0.291701210438394,0.27651594518198436,0.01518526525640964
3023.9198764658313,0.15477414372892745,0.14871680583980404,0.0060573378891234046
3024.484570101827,0.040333749406216444,0.03309235391687698,0.007241395489339462
3025.3579153560636,4.788585792061711,4.714297618251124,0.07428817381058658
3028.1060156111175,0.06141460159739905,0.05644858737358396,0.004966014223815097
3032.0041541864516,0.058622983368826154,0.05221694374948076,0.006406039619345396
3035.8739449783125,0.08888573824853088,0.08220660222842374,0.006679136020107135
3039.2079946196473,0.08924801688930446,0.07991702328421839,0.009330993605086076
3041.0079087244103,0.3540913291427158,0.3227429808316441,0.031348348311071667
3042.902153179929,1.5215278254530393,4.968169681372197e-05,1.5214781437562257
3043.8385928290454,0.14503025626786722,2.8235823856130187e-05,0.1450020204440111
3045.182772254463,0.45811996079321476,0.0002275455612198186,0.4578924152319949
3047.59758788043,0.0011686981070615833,0.00022859677350232842,0.0009401013335592548
3049.908999891656,0.9208042777953936,0.9135296349761515,0.007274642819242118
3051.239706516366,0.0915571521224787,0.0002159470532446767,0.09134120506923402
3056.312135103719,0.009535646576957232,0.0011352609300131714,0.00840038564694406
3059.3533287027726,1.0539637968757867,1.0329931508823615,0.02097064599342509
3062.808442202782,0.061792941639481215,0.0014750491911578241,0.06031789244832339
3067.2331371637074,0.9068172854476283,0.8571448511916167,0.049672434256011644
3067.8525593615705,0.016446699460000797,0.012400631575421853,0.004046067884578942
3069.6383835119373,0.016709275587341758,3.14261060631764e-05,0.01667784948127858
3075.754274910575,0.072399929042903,0.00014762604345062413,0.07225230299945237
3081.2424949532897,0.006385500006413939,0.00015122427491951425,0.006234275731494425
3086.051461374942,0.060868080871289816,0.000419923672960791,0.06044815719832902
3089.377330062994,0.02284548512712872,0.00012864315210588914,0.02271684197502283
3091.3604940193904,0.1945538321448979,0.003629982032530576,0.19092385011236734
3101.023594388997,0.6181955732051382,0.505735000880309,0.11246057232482916
3111.298047684085,0.0010166881847382707,0.00011780738767298836,0.0008988807970652824
3112.9170173905673,0.12971610073244005,1.2927140341900654e-05,0.12970317359209815
3120.841001739187,0.4088855208405517,0.061857521887284946,0.34702799895326675
3134.009871879989,0.3886671631418935,0.06543051438197785,0.32323664875991565
3143.0413269274227,0.3466130826323948,0.0016222996143500981,0.3449907830180447
3162.1247051973664,0.05561609328928134,0.01763250435651115,0.03798358893277019
