frequency_cm1,total_intensity,isotropic_intensity,anisotropic_intensity
1.9495299296727693e-05,0.0,0.0,0.0
1.5164610672551505e-05,0.0,0.0,0.0
3.054151254640545e-05,0.0,0.0,0.0
0.7025466115763344,0.0,0.0,0.0
0.7817794839884123,0.0,0.0,0.0
2.0050946217306618,0.0,0.0,0.0
12.079742537746013,0.0005515658946321029,9.332223970390141e-09,0.0005515565624081326
13.619348081919647,0.001539050533987472,7.750205328158097e-06,0.001531300328659314
18.80140724294718,0.0008617721039385764,8.141879290597274e-08,0.0008616906851456705
25.081366501857758,0.0005982072906285679,1.3051384703903388e-05,0.0005851559059246645
33.675143665330005,0.001438081786175901,2.0658386218148105e-05,0.0014174233999577528
47.02033517797938,0.001365101402921847,1.2082370238299907e-06,0.001363893165898017
50.89884131311763,8.702805890079999e-05,3.8578214020542026e-06,8.317023749874579e-05
57.13068297953142,0.0005177335283401484,1.7005557457506403e-09,0.0005177318277844027
65.76545151478966,0.0005467316807941591,0.00017311033709186075,0.00037362134370229826
79.81415928590883,0.0006479308178207376,2.300104527153079e-05,0.0006249297725492068
84.6763812388626,0.00041454587546500837,4.022044349327862e-05,0.00037432543197172977
94.93996615656279,0.0014083860180746505,5.671126844127302e-07,0.0014078189053902377
97.85330281997383,0.0019806926574400877,0.0012708695214025227,0.000709823136037565
114.87212061371429,0.0005192880367142081,0.00037609420220681097,0.00014319383450739711
122.75985007873683,0.0008732545523400179,0.0006551231445524876,0.00021813140778753024
129.65400997406542,0.0021714405584294205,0.0017047499720985863,0.0004666905863308341
146.08888910596625,0.0034648078989921306,0.0023190398571729946,0.001145768041819136
151.27153280059107,0.0014963570105755628,0.0009985170174973358,0.000497839993078227
161.40691516264826,0.007235326010542033,0.004243024556820395,0.002992301453721638
172.00693240788357,0.00014541146094206335,8.088497800132534e-05,6.452648294073799e-05
174.7692754606712,0.00038891310026687684,0.00017846294284870005,0.0002104501574181768
196.4392282723838,0.0007285855394472992,0.0002806020465698421,0.00044798349287745716
246.09078349151014,2.0300415741589313e-05,1.6769928233637595e-10,2.0300248042306975e-05
250.3313056081661,0.0010760779521317148,1.6574556036340748e-05,0.001059503396095374
265.9589600533935,0.00043339262424099906,8.934872027566521e-05,0.00034404390396533383
302.02180226099136,0.0001750772959190547,6.463304383815724e-06,0.000168613991535239
304.11867119684666,0.0026180782634661467,0.00028085664037122394,0.002337221623094923
345.38162629918963,0.0057917617403248816,0.004848111366932565,0.0009436503733923169
349.77332993282243,9.390138295695421e-05,5.3116149388913916e-05,4.07852335680403e-05
410.8622097134475,0.0028796148992393184,6.8422580172123285e-06,0.0028727726412221062
433.89427425426624,0.0018605244272018198,0.0010430100617206802,0.0008175143654811396
461.6800672510426,0.001423229371459227,0.0007443767522946237,0.0006788526191646032
501.9884427128878,0.0003629217269525939,5.522712321703427e-05,0.00030769460373555966
510.78513800679025,0.0006752534492558408,0.0003288545371619167,0.0003463989120939241
546.19865655365,0.005212614822045905,0.0011097079638207816,0.004102906858225124
614.0157473691595,0.004676866263546923,0.0018184412525363725,0.0028584250110105505
667.8930839067758,0.021557007078588167,0.009874732885244616,0.011682274193343549
727.6998658020825,7.598551106439147e-05,2.7593491653880685e-05,4.839201941051078e-05
727.9494864877508,0.00022497349762127294,7.708380004275164e-06,0.00021726511761699778
729.4111276783063,6.786248841325482e-05,3.7125881336600876e-06,6.414990027959473e-05
734.166203025174,0.00028505250433290275,2.358168916739773e-06,0.000282694335416163
744.7462259689602,0.0002545936177972406,3.6012005479592754e-07,0.0002542334977424447
762.8001239523884,0.0011753259875523405,4.3497110432700826e-05,0.0011318288771196398
781.5977498150417,0.007649580102522701,0.0033174912272619815,0.004332088875260719
797.8446608726133,0.006900097983913385,0.004298476418583314,0.002601621565330071
831.164294725818,0.00799815300684946,0.005470733641888197,0.0025274193649612617
864.8924042013264,0.02431751492111149,0.017156842811141777,0.0071606721099697155
883.9945911481808,0.0060395096050977,0.0037614174844394907,0.002278092120658209
908.344969921921,0.03323511327982864,0.020259007584257117,0.012976105695571526
920.6792138914923,0.005525413366941401,0.003373515790077764,0.0021518975768636366
944.1601930146188,0.04100551940729467,0.02882983991571933,0.01217567949157534
966.8341649894253,0.0031151758842050013,0.0009294524088054219,0.0021857234753995796
998.1782354748848,0.009099838967894097,0.008811407971161221,0.0002884309967328755
1002.8150615409739,0.0026433947879750696,0.0007239262988619935,0.0019194684891130761
1008.1321163869438,0.0010173069944670956,0.00055059247701975,0.0004667145174473456
1014.3016441998731,0.012389257947994404,0.008486476115964484,0.0039027818320299204
1032.7999743865585,0.0025878125217565925,0.001161589726457884,0.0014262227952987084
1036.8799957430683,0.004515065586564419,0.0009323094685446297,0.0035827561180197896
1052.6707467322967,0.003917664950449208,0.0026791933802939394,0.0012384715701552682
1058.3113174212554,0.009323024417316942,0.007464681519000342,0.0018583428983166006
1061.8540529736447,0.0013822770140188374,0.0007154530814454563,0.0006668239325733811
1069.195654632035,0.00010729268802241256,5.891042458703048e-06,0.00010140164556370952
1076.02541686522,0.006587646381401714,1.2237651325404846e-05,0.006575408730076309
1080.1815835078323,0.011412783416512496,0.0016876257562739884,0.009725157660238508
1086.807480322006,0.011821487805349742,1.2860049585845352e-05,0.011808627755763896
1088.6071042687074,0.11146371742532259,0.00019687817603419598,0.11126683924928839
1091.746348895663,0.00027681744318368355,7.1338391256948725e-06,0.0002696836040579887
1092.056199712425,0.0024400071883095716,0.0005698493069281178,0.0018701578813814538
1098.9754668403841,0.039570394946766944,0.020963035570984175,0.01860735937578277
1104.6350717555486,0.033303950206304445,0.001597870821123804,0.03170607938518064
1133.2788023786288,0.01050639325738437,0.0006654475744084073,0.009840945682975962
1157.6069116907222,0.21281541347674857,0.11469461399964051,0.09812079947710806
1182.6663396159722,0.04810348154648998,0.028152044949649863,0.019951436596840115
1205.8860231178967,0.011952052526964314,0.0005718971051666929,0.01138015542179762
1219.7650886013348,0.00293246343671379,0.0016084082961030145,0.0013240551406107752
1225.0847268527264,0.0015034957821054248,0.00019520009121231632,0.0013082956908931085
1243.0146906460209,0.004299233293825955,0.0022262088609777565,0.002073024432848199
1248.1085912728345,0.0011325917181038915,1.4685864233505184e-05,0.0011179058538703863
1260.7304962291553,0.010496586795901597,0.005412281461073448,0.005084305334828149
1271.3494565732244,0.0011077405532205365,5.894018106443336e-05,0.0010488003721561031
1275.785650092588,0.005479826481206425,0.0015346003789770979,0.003945226102229327
1286.3849592565546,0.0061583031169744635,0.0020433120676228438,0.004114991049351619
1294.1325497186124,0.0036128940777920065,0.0005584422581988912,0.0030544518195931153
1300.9913731443737,0.0024014676343768132,0.0008170688931868262,0.0015843987411899873
1311.199671922315,0.0012060097739389776,0.00022314372049006686,0.0009828660534489109
1323.5503253625652,0.07221678193750906,1.1652663658941561e-05,0.07220512927385012
1323.6847545548408,0.0018405390224535084,0.00018982791923980144,0.001650711103213707
1325.0846524057654,0.09944453248208295,3.513296856422644e-05,0.09940939951351872
1329.540072234094,0.0007598518896740605,4.83143800064881e-05,0.0007115375096675724
1333.2504786836635,0.001119719039213491,9.130069374535516e-09,0.0011197099091441165
1334.8572926436698,0.013429273374210569,4.9848498432562985e-05,0.013379424875778007
1337.774188087892,0.0008874862861892755,7.274850707898642e-06,0.0008802114354813768
1338.2851092633032,0.0005674427912252216,2.5400893118405113e-05,0.0005420418981068164
1343.505338604752,0.018858176264110977,0.00010116892972044868,0.01875700733439053
1351.3933996723374,0.0051788329295973335,5.094730010450618e-05,0.005127885629492827
1360.095933577352,0.020393546629909855,0.00032574275588585034,0.020067803874024005
1373.280028162604,0.0018826882637642346,1.606768771837923e-05,0.0018666205760458554
1392.8286298122086,0.0008908164971348827,0.0002899052551308153,0.0006009112420040674
1397.498180027262,0.0006396445365859328,9.431792837972471e-05,0.0005453266082062081
1407.173673803028,0.0011250927705884182,0.00017489890328557908,0.0009501938673028391
1412.6348108177426,0.0013156715787547347,0.000568672585977945,0.0007469989927767898
1416.6156433731649,0.0013810847662372946,0.00020727940746664034,0.0011738053587706542
1419.8953242345576,0.015408931541428583,0.00014645975179328498,0.015262471789635298
1420.9782743378282,0.00013042341233344298,6.17869565687651e-06,0.00012424471667656648
1421.5207198498938,0.00019001313726528437,7.019058764750682e-05,0.00011982254961777757
1433.4492895761418,0.004337830371802748,0.0007570729392724825,0.0035807574325302655
1467.7918584079782,0.024901820937555906,0.0013426356536962792,0.023559185283859627
1473.6681764881682,0.02307640661027127,3.9846045738836564e-06,0.02307242200569739
1479.7020324540574,0.0009838297328656912,1.544658656170631e-05,0.000968383146303985
1479.947151771395,0.00226626007217854,0.0002859562694256383,0.0019803038027529016
1481.0357648754327,0.011551200966187565,0.0001485281739973068,0.011402672792190259
1481.6294488054043,0.003663295422767962,0.0005979264757685225,0.0030653689469994395
1483.167455239967,0.0023514728319052698,0.0008379401717336964,0.0015135326601715732
1484.243391521726,0.06410812099989002,0.009221954245632881,0.05488616675425714
1485.1483937410096,0.22981236709198563,0.013958738103868882,0.21585362898811675
1487.2884919245216,0.008296118059985008,0.0014694712964114108,0.006826646763573598
1489.7343812048227,0.04002419438652645,0.002333057134171192,0.037691137252355254
1491.549675799987,0.00992859817428855,0.0018991997238012967,0.008029398450487252
1493.7422137944122,0.02711260612956907,3.945093518926324e-09,0.027112602184475552
1495.0822128481748,0.0045641051928675316,8.469420950469976e-05,0.004479410983362832
1498.737439952718,0.0032924030800740097,3.6237791682830605e-05,0.003256165288391179
1500.8726714609584,0.002927132712266392,7.956339641482705e-06,0.002919176372624909
1502.310289162744,0.0006747961404352951,0.00011004567865620024,0.0005647504617790948
1504.8560703695678,0.0020362499044207544,2.886201428846881e-06,0.0020333637029919076
1506.3748347824078,0.000805786552048559,6.286223303791539e-05,0.0007429243190106436
1818.9522830201945,0.034681837687182915,0.019009084662228594,0.015672753024954317
3021.3309780766062,0.0023399161280913986,0.0016732663129468723,0.0006666498151445265
3021.4150615038725,0.017638487626657942,0.015517452919586054,0.0021210347070718893
3022.588009415098,0.12067368840958449,0.11232886688814465,0.008344821521439838
3023.0566562031063,9.879835887092297e-05,1.1995491486897424e-05,8.680286738402554e-05
3024.0548320157377,0.19265136557183166,0.17520336601131176,0.017447999560519886
3025.024655427854,3.79850968152948,3.7466857418548507,0.05182393967462949
3026.4981814789976,0.4932722530916439,0.4802376467108934,0.013034606380750505
3030.3825956165256,0.009539298082410063,0.00530725698406727,0.004232041098342793
3031.011230120573,1.1594847024248973,1.0706230550291527,0.08886164739574465
3034.4927844770878,0.09907923793467044,0.09354064713090439,0.005538590803766053
3038.170936413881,0.05607608589707631,0.04851477488811177,0.007561311008964536
3041.077211597444,0.422274023850723,0.39052951041179473,0.031744513438928264
3042.8743808061226,1.577000082725852,5.3483379978651885e-05,1.5769465993458733
3043.7427382627334,0.0128723884336394,9.501898025544038e-05,0.01277736945338396
3044.1698196621824,0.026019432846984228,0.019820734384379833,0.006198698462604396
3045.7002145456763,0.35946241691746506,0.0036627189260198317,0.35579969799144523
3048.8972752940454,0.014699641435868792,0.005999552255985239,0.008700089179883552
3049.8291276085693,0.913763321849735,0.9063999964101362,0.007363325439598743
3053.279190257599,0.16509763538180364,0.002348925456550533,0.16274870992525312
3058.6403373390317,0.06102366419115503,0.021975116085794694,0.039048548105360334
3061.04632772156,0.415305004606655,0.27987352240755675,0.1354314821990982
3065.7558934232584,0.23638017627586055,0.14463803967691735,0.09174213659894319
3070.5337069490465,0.2236999275809125,0.21312076963351695,0.010579157947395546
3074.85728823259,0.22434093494726415,0.09495292624756344,0.1293880086997007
3079.955027624856,0.04125009055338286,0.03327545863537763,0.007974631918005227
3082.8513092098638,0.9349705370907078,0.9177395979832943,0.017230939107413516
3084.918772828045,0.05433759325211707,0.017350322412829116,0.03698727083928795
3088.8892161251542,0.02187152452625731,0.016919771319605748,0.004951753206651561
3092.154781687505,0.12358332661258861,0.11638035297149772,0.007202973641090885
3097.05381176031,0.31927212625734347,0.17202384095241427,0.14724828530492917
3108.195996934881,0.19690519457282302,0.06856846614999113,0.1283367284228319
3112.7462076883135,0.12836110073697363,1.3803554687796794e-06,0.12835972038150484
3121.0353705247912,0.41013047530520363,0.06292827382982204,0.3472022014753816
3147.7629473601955,0.22470853486775247,0.003190704005195524,0.22151783086255694
3151.955049926837,0.10300729987107884,6.718147383722188e-05,0.10294011839724163
3190.3402619344192,0.25932904228849374,0.019432434970601306,0.23989660731789245
