frequency_cm1,total_intensity,isotropic_intensity,anisotropic_intensity
1.7448964164102598,0.0,0.0,0.0
1.0591597112614364e-05,0.0,0.0,0.0
1.718603316587576e-05,0.0,0.0,0.0
2.7999595418273016e-05,0.0,0.0,0.0
0.523868420197251,0.0,0.0,0.0
1.0715480426240287,0.0,0.0,0.0
13.610999182218698,0.00012017879949476346,3.776951751512361e-09,0.00012017502254301194
21.10605891232767,0.0011993427490245524,2.6546560548496124e-06,0.0011966880929697027
30.054311143960927,0.005163786949167702,3.393960219897762e-10,0.00516378660977168
40.18252286709008,0.00011515545482456701,5.6492472670434555e-11,0.00011515539833209434
56.12808849445422,0.00360359762829942,4.939238804356519e-05,0.0035542052402558547
60.26031896093553,0.0016382488293924728,3.8559587049184933e-08,0.0016382102698054236
76.20711467126473,0.0001568089889777713,5.724303751162865e-12,0.00015680898325346753
94.06411101405128,0.0020764621617097787,1.917184357045106e-07,0.002076270443274074
102.23361189059032,0.008576422817182761,0.0008798822726325986,0.007696540544550162
113.75316330763452,3.0108120198983352e-05,4.3460905883872257e-07,2.967351114014463e-05
127.06052415718894,0.0007616557305434945,6.045360158756508e-07,0.0007610511945276188
144.66256784003983,0.017911124947753133,0.009534266491470225,0.008376858456282908
147.67467620485462,5.073010987117833e-06,1.5158115863457526e-06,3.5571994007720802e-06
155.33783517787757,0.0005500218053240337,1.3171319006932625e-06,0.0005487046734233404
162.6600651215278,0.003648640243824274,0.0022180415645406903,0.001430598679283584
172.14562879567512,1.3888762434011641e-05,3.1861117022346373e-07,1.3570151263788178e-05
174.39509376181027,9.237820863302086e-05,1.7317191137625786e-07,9.22050367216446e-05
223.81950862385486,0.0028953942468759506,0.0001356161425336441,0.0027597781043423066
246.05148881937384,2.082979555674459e-05,5.120792067228624e-11,2.0829744348823918e-05
278.5102556148427,0.0001360328181951472,7.998675126706154e-05,5.604606692808566e-05
312.4753699403741,0.0026892478455713474,1.6785073104462875e-05,0.0026724627724668843
356.3366221318705,0.015979916178668122,7.37953657167211e-11,0.015979916104872757
368.8117768301549,0.0018394243116396456,0.0003418250104871367,0.001497599301152509
419.61803957039115,0.005002694054564062,0.004129723882442538,0.000872970172121523
445.76760692377957,0.00042877952953210535,9.327076655042854e-05,0.0003355087629816768
500.09004122781846,0.0023134140708732783,1.8915625100456384e-05,0.002294498445772822
507.05894660262436,0.0002870772810835469,4.583689527304975e-06,0.0002824935915562419
547.2680852571687,0.005284047771386561,0.0008053509124515939,0.0044786968589349664
685.4108130366118,0.01246451812396668,8.254155299951943e-10,0.01246451729855115
701.0514680058662,0.012189662134496064,7.336794149059449e-06,0.012182325340347005
727.9095410362106,4.798516828690322e-05,8.563683489018667e-07,4.712879993800135e-05
728.7411776498334,3.790343457237464e-05,4.094998604481765e-09,3.7899339573770156e-05
730.7314533203318,9.769476888572335e-05,4.306225682914041e-08,9.765170662889421e-05
735.6865314408655,5.2932184064558206e-05,8.377222153532077e-08,5.284841184302289e-05
746.5208778317251,0.00036216337136113356,2.613394621570666e-08,0.00036213723741491786
766.5552436239934,4.389477686081038e-05,6.285208323096803e-08,4.383192477757941e-05
796.9119778871848,0.0005117243062560955,7.651405365436088e-10,0.000511723541115559
836.1233603926595,1.8798812010963073e-05,9.458748616624224e-09,1.8789353262346448e-05
881.654243370881,0.0005345403113908704,1.3049477073041927e-07,0.0005344098166201399
908.3149645113527,0.03333698984072982,0.02038874781244577,0.012948242028284053
929.9764092587163,2.724393404847147e-06,3.494560120879032e-10,2.724043948835059e-06
951.7193158867983,0.013416917131979659,0.013082495977457446,0.0003344211545222128
977.9632945575804,0.0003991819306462117,3.685286579512943e-08,0.00039914507778041655
1004.9932107005948,0.002342594619922981,0.0010497144271612278,0.0012928801927617531
1015.9068042978334,0.00336273094036656,0.0030325704506407947,0.0003301604897257657
1022.2823261481075,5.2868406411118925e-06,3.122937711659224e-08,5.2556112639953e-06
1029.8451669996664,0.006384855082141075,0.0018891610044780179,0.004495694077663057
1043.8181024253847,0.008747949754548628,0.002110620996072674,0.0066373287584759535
1057.6219775539096,0.0001136736064390726,1.1124374397059996e-07,0.000113562362695102
1063.3760725243405,0.00306125067852231,0.0027178410026899454,0.0003434096758323649
1072.1928036553636,0.011268787948590445,0.005063072181838021,0.0062057157667524225
1079.4913340124865,0.013047931801138803,0.0005530928222399138,0.01249483897889889
1088.3078718120726,0.023506373914310975,7.959895645421759e-05,0.023426774957856757
1089.0627724414915,0.08318583564331324,4.27725985397573e-06,0.08318155838345925
1092.0802325553943,8.489015353237306e-05,1.0039774883956507e-06,8.388617604397741e-05
1092.5229031986203,0.003390032596588039,0.00010696461992707758,0.003283067976660961
1120.8727156386508,0.08982091630939684,0.04305461841719577,0.04676629789220107
1141.2891387565005,0.002859610967973209,2.595681609304285e-09,0.0028596083722915995
1156.7786186467845,0.2646552372849481,0.15147492381612582,0.11318031346882229
1205.414780012595,0.013063192057967294,3.5585281925417665e-07,0.013062836205148039
1218.342665644543,0.001431891401380129,0.0010906854097838257,0.00034120599159630346
1224.284182352307,0.00115977386632776,6.711184176529515e-07,0.001159102747910107
1243.0315963724174,0.00021611138271416283,7.86789508201049e-05,0.00013743243189405792
1249.2282619978137,0.0004591633650303233,5.908988015379361e-08,0.0004591042751501695
1267.4801574664618,0.00022391267312866275,2.436216254234341e-06,0.00022147645687442842
1273.7013856436881,0.00020531781403636897,4.64620354769897e-09,0.00020531316783282125
1292.4263743927759,0.0015307659106175934,5.813473297681917e-06,0.0015249524373199114
1295.1785240597521,0.0018378815881927382,3.1394543387396636e-09,0.0018378784487383996
1312.451591042915,0.00013751360214417152,4.8925476801578296e-08,0.00013746467666736993
1318.2509279391131,0.002450958337289681,0.0006066406379997433,0.0018443176992899379
1323.7756172220413,0.13433405431056586,1.6456594326521783e-09,0.13433405266490642
1325.671268762158,0.044814705048511295,3.6736192730534605e-09,0.044814701374892026
1328.6429641914417,6.382426042338027e-05,2.352323907286671e-07,6.35890280326516e-05
1333.4897736208247,0.002929764813385159,1.7641647011838386e-07,0.0029295883969150407
1334.3986492694805,0.007249605061816128,8.853617627646753e-09,0.007249596208198501
1338.0206659382548,0.0003365268273185078,3.9454821663879e-08,0.0003364873724968439
1338.3750433143632,8.411951314885728e-05,3.9533331029379483e-07,8.372417983856349e-05
1343.9103256527244,0.00562973207846016,0.00029245927062609425,0.005337272807834066
1367.7697656146458,0.008185057729311131,0.0026195216793833405,0.0055655360499277905
1388.035072283644,0.013525147103288173,0.002463401953354995,0.011061745149933178
1403.06596682668,0.010461206558945259,0.003813038740553465,0.0066481678183917935
1411.9784836047286,0.005141040076676947,0.0028554015988469174,0.0022856384778300294
1414.038418084766,0.004216805786715618,0.0004528860970889715,0.0037639196896266463
1419.2194234779474,0.009226211314933922,0.0005521371963616204,0.008674074118572302
1420.5818260840674,0.006199220385809971,0.0001916324251789439,0.006007587960631027
1421.5423076334523,0.00024683915652517525,7.063737731848687e-05,0.00017620177920668837
1473.6375864556624,0.019616011254888488,2.0887220859846056e-05,0.019595124034028643
1480.153451595121,0.004958144663777828,0.0003041196131299899,0.004654025050647838
1480.3161883277835,0.002445375926329556,8.561197757387245e-06,0.002436814728572169
1482.170998692275,0.004543838951650371,0.0007742487938457646,0.0037695901578046064
1482.3474166166293,0.0008977782170402052,0.0004902476743068098,0.00040753054273339536
1484.6908473024516,0.24006042880579082,0.0191471445994235,0.22091328420636733
1484.8940058696749,0.002939418495422978,0.0019351643636712427,0.0010042541317517352
1487.4091119112488,0.06257853503362464,0.00680077601481197,0.05577775901881267
1490.516420902972,0.0024826746493281865,0.0008420319674353343,0.0016406426818928522
1493.7548326304782,0.027045374100766597,8.043275330492714e-10,0.027045373296439065
1494.4798341729438,0.0068416092977732395,0.0009833928861997625,0.005858216411573477
1498.5102481595277,0.002055209452341283,0.0005417356652044959,0.0015134737871367872
1502.0813517760846,0.0010745786314473654,0.0001832075997599919,0.0008913710316873735
1504.8804014167386,0.0015803646945286311,0.0002726909885091634,0.0013076737060194678
1506.4030423201611,0.0009294724677011759,1.5941218841458687e-08,0.0009294565264823345
2248.3675384829567,1.1213014137352253,0.7924665457026816,0.3288348680325437
3021.4213056100502,0.020787592339497615,0.017458438565209,0.0033291537742886146
3021.7015079779276,0.019724642528548192,0.018610620336180883,0.001114022192367308
3023.004456592702,0.22378559299437814,0.20715056169139243,0.016635031302985704
3023.352643819912,0.0010962995154509309,0.0003197026714542875,0.0007765968439966435
3024.3303563559193,0.702653593871205,0.6875254286945411,0.0151281651766638
3025.738972707392,3.5937709092009085,3.532987972021131,0.06078293717977748
3026.9279699159792,0.3257013774442997,0.3090541048681592,0.0166472725761405
3031.1472403407897,0.03336798663771418,0.030322633352459882,0.0030453532852543026
3035.3726479068278,0.10274147911447674,0.09292080179170435,0.00982067732277239
3039.123039433987,0.06369588009217131,0.05839526283463104,0.0053006172575402735
3041.187123154248,0.3977879084059459,0.36692485187062657,0.030863056535319323
3043.00724651217,1.391337423446623,2.610564030964142e-05,1.3913113178063132
3044.304710974664,0.10357391985267343,5.149778069225941e-07,0.1035734048748665
3046.4516778922525,0.4218830093095524,2.8108842742992676e-05,0.4218549004668094
3049.804311130613,0.9052560625398619,0.8978090004051413,0.007447062134720568
3049.861605722404,0.023400777095151197,0.008301009311877954,0.015099767783273245
3053.483053643139,1.025297299576888,0.9956629404609604,0.02963435911592764
3054.3489759404597,0.14923339694118737,0.0002643865553270261,0.14896901038586033
3060.3087836691507,0.0009581926765385666,4.9403753001108215e-06,0.0009532523012384558
3063.290562923672,0.0687193376945187,0.05706039122393313,0.011658946470585562
3067.3083112019854,0.10151595519489087,5.185805932406355e-08,0.10151590333683155
3074.0304298340325,0.004751548068006518,1.198324920237661e-06,0.004750349743086281
3079.885912404017,0.1338858729373533,2.9202134941610985e-06,0.13388295272385914
3084.671081230079,0.035545315566728866,3.6152072715081524e-06,0.035541700359457355
3087.5723140854757,0.19742253407902524,2.726991478082552e-08,0.19742250680911047
3090.112725717355,0.018153975066707368,1.5966380752310393e-05,0.018138008685955057
3108.888667714557,0.003813295679921872,6.44717416168511e-09,0.00381328923274771
3112.765419656496,0.12817042250567434,1.576923478030833e-06,0.12816884558219632
3120.842289295984,0.4095379132685414,0.06241926341162865,0.34711864985691276
3479.994450933922,0.21770981963504746,0.1352814771796126,0.08242834245543484
