frequency_cm1,total_intensity,isotropic_intensity,anisotropic_intensity
1.6743525700384165,0.0,0.0,0.0
1.2089150539533993,0.0,0.0,0.0
0.6871129334954476,0.0,0.0,0.0
1.5541043889553998e-05,0.0,0.0,0.0
1.5541043348655593e-05,0.0,0.0,0.0
4.429873579243722e-05,0.0,0.0,0.0
5.106890162917363,0.003020391097366954,7.221586448102727e-06,0.003013169510918851
10.294044689508434,0.0013169713795937689,2.5503142843053326e-06,0.0013144210653094634
16.957670593052914,0.001084009393746109,1.7982108104949711e-06,0.001082211182935614
18.535815841221073,0.001021818416702011,1.1556709811998594e-05,0.0010102617068900124
30.965189312260737,0.000755863903648606,9.178835080354069e-05,0.0006640755528450653
40.53990603719478,0.0010979973863334985,4.928355516801041e-05,0.0010487138311654882
52.69755450138276,0.00019736857024906776,1.5718109893052494e-05,0.00018165046035601527
63.86851715135254,0.0008776035013905478,2.9929379758957717e-05,0.0008476741216315901
69.48052030322314,0.0005617840418653911,2.773719551065458e-07,0.0005615066699102846
71.96053968767114,0.0007496853965674235,8.504722920347483e-07,0.0007488349242753887
79.18619231196956,0.0007358306062741565,4.491265905586744e-06,0.0007313393403685697
88.33584762584162,0.0004688090525080224,7.033099106987416e-05,0.0003984780614381482
99.68524928376857,0.000681966131363586,2.6658318735273795e-06,0.0006793002994900586
106.82241347964366,0.0003786875846778472,5.582005476134461e-05,0.0003228675299165026
109.32325752075066,0.00034030411218454923,0.00019738181765065367,0.00014292229453389553
130.8585330333954,0.0003590816408157129,0.00024717011745366887,0.00011191152336204403
135.09475090191157,0.0007678236973224497,0.0004266438604913258,0.000341179836831124
152.15699652217813,0.00014589480203739953,1.7415552111487498e-05,0.00012847924992591203
179.51535129179928,0.0010582251025903118,0.000937796031060156,0.00012042907153015579
193.98251015710846,0.010049729818586787,0.008716631779881339,0.0013330980387054477
204.4901894949217,0.0014972944400104054,0.0009865783440181088,0.0005107160959922966
216.66506944917415,0.0011406267877916664,0.0009838173794506308,0.00015680940834103568
238.9090676821185,0.00034254230904503066,0.00019233296282308659,0.00015020934622194407
240.01846618345488,0.003523668132342635,0.002946641015540664,0.0005770271168019707
243.80280031983824,0.0010596963773391766,0.0008996706976397427,0.00016002567969943378
254.51159656163316,0.0014887937947033543,0.0003984956209945723,0.0010902981737087821
266.6562883117798,0.0006102423529881552,0.0001811398917425596,0.00042910246124559564
270.06710752865905,0.0010161540971928256,0.0009137421616093614,0.00010241193558346426
284.6265158826411,0.0008586192674718557,0.00031859911542110435,0.0005400201520507513
309.0692486758917,0.008098654176777097,0.006865336747524213,0.001233317429252883
336.8524482714482,0.0022408516093118556,3.413985392167935e-06,0.0022374376239196877
352.45658970253567,0.005456057062290719,0.004771266460484714,0.0006847906018060043
385.6271502660502,0.0018064187953994388,0.00027127419565642466,0.0015351445997430142
402.09674224533853,0.005510474133685438,0.003229382645563812,0.0022810914881216263
464.16970202701657,0.001512541023299799,3.5709146651776625e-08,0.0015125053141531472
497.9232481174966,0.0016533804153194148,0.0004850798323298442,0.0011683005829895706
517.1074894505124,0.005424585757123462,0.0006225563707490305,0.004802029386374432
537.8945667150516,0.0023590294038517835,0.0005365543629467362,0.0018224750409050474
555.3238259783797,0.002797102014841216,0.001138520679699299,0.0016585813351419167
719.3219553100189,0.002352740140618007,0.00048124019095512673,0.0018714999496628804
725.7979919362131,0.0018757835301891502,0.0005879325594841968,0.0012878509707049534
728.6979173205542,0.0010791502345344382,3.135174585294567e-06,0.0010760150599491436
731.4715174450527,0.0025367382947154783,6.238078876439199e-05,0.0024743575059510865
742.2862147930144,0.0013921717644813521,5.930904393067124e-07,0.0013915786740420454
744.8551773890772,0.0010946384175998347,0.00025311460290243596,0.0008415238146973987
760.3630823513088,0.0028773121845121034,5.246689149691139e-06,0.002872065495362412
772.8527321669225,0.0011287300420565814,6.808937117721665e-05,0.0010606406708793647
799.0812901201307,0.004619898643890252,0.0005186035426160361,0.004101295101274216
816.9476061506543,0.007512321771849685,0.001850696934165044,0.005661624837684641
839.1555277683377,0.021088982170715885,0.010033757367267426,0.011055224803448461
847.0528804843481,0.03893380535090166,0.026637959245828294,0.012295846105073364
860.5029005286387,0.08291582032259677,0.07323935862425032,0.009676461698346453
862.0566135983511,0.022615464211127062,0.0038275948051920976,0.018787869405934965
879.4966436342999,0.014153039142495591,0.0090476157544143,0.005105423388081291
887.0011009835213,0.005538890971779726,0.0002477104856767573,0.005291180486102968
916.5057660502644,0.015342153901370292,0.007791443842003964,0.007550710059366328
926.5392077005303,0.026311464930120557,0.010108899764040618,0.01620256516607994
952.2325173317797,0.049315199984162596,0.042653757113971576,0.006661442870191021
955.8600214215788,0.016182420300134573,0.014669163894797058,0.0015132564053375154
983.4429948546936,0.003733041052240515,0.0008177848895486538,0.0029152561626918615
988.654774355979,0.03414243713350425,0.027463117041687128,0.006679320091817116
996.821687592313,0.008901311085188953,4.804589311848176e-05,0.008853265192070471
1018.1087413797235,0.005307857301108895,0.00046544058253633174,0.004842416718572563
1029.8827602088027,0.01473164355658093,0.000966532738527393,0.013765110818053537
1039.9075847970169,0.0032756367632556143,0.000747736187529162,0.002527900575726452
1045.853585214924,0.023126451095336977,0.011181242711485,0.011945208383851977
1050.1374080093365,0.027098771279800028,0.020380154575561298,0.006718616704238731
1056.6410172158355,0.016250002151607046,0.0015026132581133305,0.014747388893493717
1058.5262730797763,0.04300281878493374,0.022047084739927086,0.02095573404500665
1067.5667441677906,0.004929921072511331,0.000968615256972222,0.0039613058155391085
1083.8260332732184,0.008503268441071916,0.00012607412668439849,0.008377194314387519
1085.1454762654214,0.023258989002808737,0.013318037907487704,0.009940951095321032
1097.7508414388922,0.051070976840317854,0.0005942926102603034,0.05047668423005755
1101.7610978385362,0.010415902745286513,0.0011923484215485961,0.009223554323737917
1105.389291761718,0.018855918556237417,0.0005227263593467484,0.01833319219689067
1108.2582137062077,0.052716913810038235,1.417340910378299e-06,0.052715496469127855
1110.7461192595592,0.034284141284573584,6.9075963827556935e-06,0.03427723368819083
1116.762524160123,0.012217964054258105,0.004572523823915957,0.007645440230342147
1123.1549522685807,0.028246764514788383,8.374165291820117e-06,0.028238390349496562
1139.324267161103,0.012032865798754701,0.0009174354279175617,0.01111543037083714
1160.031157284887,0.020906717689141416,0.007302245571016073,0.013604472118125342
1172.4532516694494,0.012362912529114894,0.0007714601249193997,0.011591452404195495
1177.7470644163259,0.01000280386719361,3.519141619996759e-05,0.009967612450993642
1190.9582583381145,0.022191096236811245,0.003946265264520493,0.01824483097229075
1211.1628445426295,0.0260823834590868,0.019036245784619855,0.007046137674466946
1225.4830061921691,0.012307329381601657,0.001394547283169197,0.01091278209843246
1249.9619942209406,0.005806034732975973,0.0011594965604917065,0.004646538172484267
1250.5678503200272,0.0016332002604516906,8.732048334145336e-06,0.0016244682121175453
1262.6965037051255,0.006134026125653497,0.0014064575425909705,0.004727568583062527
1265.2306743443444,0.006629324075583987,0.0023044874165026657,0.004324836659081321
1276.3714313837165,0.017742505952216332,0.014577638412706907,0.003164867539509425
1287.9214933610517,0.006721424344932717,0.005009951647146279,0.0017114726977864381
1290.3237618163375,0.0016264415714545048,1.9052327426674247e-06,0.0016245363387118374
1299.3778078827363,0.003455102749685111,0.0002215389383286671,0.003233563811356444
1307.2831226321816,0.0012356413443570637,0.0003562407232494619,0.0008794006211076017
1309.6491599283388,0.0067457240109150465,0.0020619309765863656,0.004683793034328681
1316.4533121988732,0.00688224940216626,0.00025293975653738573,0.006629309645628875
1320.3630589896284,0.04359517258029527,0.001234699105699054,0.04236047347459622
1324.4540490720337,0.04338645850823221,0.0005184138909681522,0.04286804461726405
1328.8544409157444,0.013646775007604632,0.0005728000273432534,0.01307397498026138
1330.8934102653984,0.006305054358706244,2.5571159582562284e-06,0.006302497242747987
1331.5876497535035,0.017612945805329076,0.000256182444134241,0.017356763361194835
1333.460442355782,0.04216358422489028,0.0024800781953009145,0.03968350602958936
1336.0702557619447,0.022301109108277758,5.305392356642822e-05,0.02224805518471133
1340.8791817218678,0.008344063600933602,5.047721372686228e-05,0.00829358638720674
1342.6687977732427,0.031691657005871274,5.1467706690095426e-05,0.03164018929918118
1345.6580788808478,0.05283466599427737,5.545768445899617e-05,0.05277920830981837
1349.3205134859184,0.023961026247143098,4.4593340326910293e-07,0.023960580313739828
1359.753023631293,0.02508828847212519,6.540277692090591e-05,0.025022885695204285
1380.7256787561678,0.0024216100275488007,6.438200859232461e-06,0.002415171826689568
1385.8279690819193,0.005291044823555,0.0010295164054510563,0.004261528418103944
1390.3010340221952,0.002549555042027823,3.486568261608257e-05,0.0025146893594117405
1403.6450506961107,0.002196468568734102,1.731314630798956e-06,0.002194737254103303
1406.6587663840094,0.006241092610850173,0.0015756722773996178,0.004665420333450555
1406.998883931591,0.006496460152008455,0.002161281635578876,0.004335178516429579
1409.9289291282498,0.004642385433481725,0.0005426547731972425,0.004099730660284483
1411.830992967765,0.0015631824474795185,0.0006126472235755686,0.0009505352239039498
1412.1912005128538,0.002006873952513718,0.0012309036774753508,0.0007759702750383669
1415.0450991971704,0.0039943679708668274,0.001786831420509715,0.0022075365503571123
1416.1408117340786,0.0077639144926921816,0.0006637899450739499,0.007100124547618231
1417.8632692655278,0.007586102745796784,0.0017425016670067617,0.005843601078790022
1419.3916110339762,0.011126584419285887,4.650938099102725e-05,0.01108007503829486
1478.6229383192106,0.034595373040711176,8.056926401063082e-05,0.03451480377670055
1479.838539451004,0.060253442877137,0.006073256025271491,0.05418018685186551
1480.4358139607943,0.003123143375993129,1.2359441759393085e-05,0.003110783934233736
1481.1575740768242,0.005108042326071831,0.0004547574680736638,0.004653284857998167
1481.4055889293065,0.05904288841973637,0.003514327696180818,0.05552856072355555
1482.16150201271,0.016663992976562122,0.0002863273819548342,0.016377665594607287
1483.0582591400457,0.13035610460396344,0.000803248929479388,0.12955285567448405
1483.3229901835539,0.04686682414792498,1.276900946731964e-05,0.04685405513845766
1485.1982268550946,0.009239979741620092,3.284700303000436e-05,0.009207132738590088
1487.4243144727468,0.012431015517366934,8.473510976662116e-05,0.012346280407600312
1489.6830805943837,0.036548192009055284,0.0010951584798411216,0.03545303352921416
1490.4557871937907,0.016159229157919897,0.0008880008568905125,0.015271228301029383
1491.0065542518837,0.015328663671374294,4.469434995537532e-06,0.015324194236378756
1491.1788082260719,0.012639763553523992,2.8443683582555455e-05,0.012611319869941438
1494.3101831257186,0.027659616097084748,1.1255482336015424e-05,0.02764836061474873
1494.3718204259415,0.027239542989990435,9.038042256134007e-05,0.027149162567429094
1497.1123891647176,0.0031969585416189716,3.136361806914615e-05,0.0031655949235498255
1499.5727736769772,0.003715921437696137,2.0748304202052825e-05,0.0036951731334940842
1500.2944929105126,0.008665870565474987,9.176097872444153e-06,0.008656694467602543
1502.1194133036154,0.0020264788080776607,4.961837345476263e-06,0.0020215169707321844
1503.923786362327,0.0017168779448984619,0.0001148153895396127,0.0016020625553588492
1504.130242648891,0.003222769559688741,3.586134361988391e-05,0.0031869082160688573
1505.838557963424,0.007362567173965932,1.6679934544772143e-05,0.007345887239421161
3023.949429586022,0.09965069748856056,0.052104806463263584,0.04754589102529697
3024.3486341690277,0.10128077448511334,0.0748325790704544,0.02644819541465894
3025.088314802242,0.9718102116765419,0.9152491549782474,0.05656105669829446
3026.316140644186,0.16980935427693963,0.04119633360147041,0.12861302067546923
3027.184443024785,0.3839708666138881,0.28883587809765426,0.0951349885162338
3028.23792134805,0.48742314626127137,0.3146605799507396,0.17276256631053177
3028.618985381045,1.1421513680990867,0.9752644123744357,0.16688695572465087
3028.707952053911,0.11841391126089093,0.07282288061256556,0.04559103064832536
3031.15515403969,0.324984909004806,0.28973083903866537,0.03525406996614061
3031.3850748010464,1.7698003653496661,1.636895187710989,0.13290517763867726
3032.4660241216034,0.5796175189195534,0.3401007950769266,0.2395167238426268
3035.285397941093,0.26733286353382146,0.16084891240205887,0.10648395113176262
3037.456292903817,0.20484981916119796,0.171266613106745,0.03358320605445295
3038.047011851728,0.2080311430154193,0.1865343321089451,0.021496810906474213
3042.558922961343,0.3972367896990966,0.3158970831723624,0.08133970652673414
3042.6353226583014,0.2520502070552643,0.17272066458895288,0.07932954246631142
3044.464739107831,0.3245562393204675,0.15279171594366342,0.17176452337680412
3044.8977824583467,0.29583755365121084,0.22818859228331717,0.06764896136789368
3049.2615574566794,1.6736222764162725,1.6485170151600554,0.025105261256217044
3050.3552951321685,0.8419327343288626,0.8361458488281001,0.005786885500762553
3050.6173298847666,0.8312176388772956,0.8248203180973622,0.006397320779933388
3051.5674352576716,0.47496925287574426,0.01182862714356251,0.46314062573218173
3058.0450774462847,0.4771643352532287,0.07343085942966605,0.40373347582356267
3058.234943156784,0.3410609890166095,0.025998029143891155,0.3150629598727183
3061.2065274631445,0.5999890488194888,0.42883786652753875,0.17115118229195006
3062.1339697000944,0.35132248078024536,0.2518270651684296,0.09949541561181574
3062.780172974966,1.0797278217920843,0.6766017074448928,0.4031261143471915
3063.131751261544,0.8575177384945948,0.33035808781202936,0.5271596506825654
3064.900772915642,0.4601431600281506,0.02369024030771924,0.4364529197204313
3066.25774467442,0.2442032221631739,0.005746906948018922,0.23845631521515498
3069.681068300046,0.12899155268385162,0.09379827959069818,0.03519327309315344
3073.6158719621726,0.03238959061845999,0.0013701257679832124,0.031019464850476776
3079.338957648366,0.01108174879590497,5.980033024138021e-09,0.011081742815871945
3085.8882519906856,0.05020269528035631,0.0001752900797584872,0.05002740520059783
3087.1427362234595,0.04454186809867294,0.0009953892626808967,0.043546478835992046
3087.312923029087,0.17006359783541578,0.008615914477277003,0.16144768335813878
3092.6191336507786,0.019849530050316855,0.0001180156744782379,0.01973151437583862
3094.063486004058,0.031673603724928036,0.0029223469904270287,0.028751256734501004
3094.834515412459,0.02582117631324788,0.006949163461807014,0.018872012851440866
3097.5092049508125,0.046721478719793076,0.008091226155162138,0.038630252564630936
3114.253832311879,0.12026168311384079,3.977007524464658e-08,0.12026164334376555
3114.60537472326,0.11481069999526554,1.1750267373492757e-05,0.11479894972789205
3121.729468222212,0.3634875367823214,0.04772988009898196,0.31575765668333944
3121.9497953652935,0.355566139812856,0.04652311080301368,0.3090430290098423
