frequency_cm1,total_intensity,isotropic_intensity,anisotropic_intensity
1.6082803531624006,0.0,0.0,0.0
2.578241837068619e-05,0.0,0.0,0.0
2.450079038498993e-05,0.0,0.0,0.0
3.299909596237536e-05,0.0,0.0,0.0
0.6697349449056329,0.0,0.0,0.0
0.8565392808694274,0.0,0.0,0.0
21.671188880057596,0.0011944919267448532,1.891747656542684e-05,0.0011755744501794263
22.446670024579696,0.0007388198683982073,1.1519017506680233e-05,0.0007273008508915271
34.44970185382623,0.0006192781928426381,3.9513389672530166e-06,0.0006153268538753851
48.26560672702705,0.0008694804314821415,7.338836936698809e-06,0.0008621415945454427
61.66821586017257,0.00018585810166539567,2.168186957474111e-07,0.00018564128296964826
69.26379395210263,0.0009380165823830124,1.8673338223675682e-05,0.0009193432441593367
95.35944315604013,0.00017150760140978433,0.00012252434547831855,4.898325593146578e-05
107.17551730748445,0.00020638787500513848,0.00014140917427294845,6.497870073219005e-05
115.56407676466057,0.00031871366783053505,0.00016944035940566748,0.00014927330842486757
133.04524832480857,4.801499710834016e-05,3.1041627211352704e-06,4.491083438720489e-05
138.10690525496574,0.0016433623421022465,0.0015112006663707824,0.00013216167573146405
154.60784154946515,0.0001438980559751499,3.821589864171638e-05,0.00010568215733343355
158.9032415485144,0.0009935907828736022,0.0008724011909370608,0.0001211895919365413
166.82421441760232,0.002500392698014412,0.0018965174730194133,0.0006038752249949989
217.25547065064532,0.009630283944422608,0.007003788513780577,0.0026264954306420315
245.9799425697631,0.00016448258389475826,0.00010763453725934921,5.684804663540903e-05
247.41577761125146,0.003502355849217484,0.0026294423741520406,0.0008729134750654435
285.56091663584715,0.0028610961925817305,0.0010008419618970238,0.001860254230684707
297.79981699205337,0.0014730615728223446,0.001180261942880216,0.0002927996299421287
339.54698912511475,0.0002878296424552478,1.0587253862651507e-05,0.00027724238859259633
373.974603616524,0.006811342868679458,0.0024837112835171416,0.004327631585162316
424.63685309461175,0.008816406875221597,0.0037665255022350645,0.005049881372986532
453.21865427977275,0.001988088660568883,0.0013992059933195134,0.0005888826672493694
489.69277264873057,6.884741726610788e-05,2.5499697742462597e-05,4.3347719523645286e-05
536.4760066083004,0.0011664098297907404,2.0607476284596616e-05,0.0011458023535061439
726.1905971331928,0.00028324971974105274,4.6358847027264693e-07,0.0002827861312707801
728.7522274120308,0.00045205366682541975,0.0001839252951895342,0.00026812837163588555
733.2691388865406,0.0003718230626685705,2.2980669586031272e-07,0.0003715932559727102
747.1936608414546,0.0019201856159492608,4.413648848020183e-05,0.001876049127469059
758.5288034221405,0.00012139336060308488,2.0342221588277132e-05,0.00010105113901480774
777.2568813959707,0.0034669394483610957,0.0020570823072924207,0.001409857141068675
812.301108196898,0.00450759855181605,0.0009779448532804254,0.0035296536985356245
840.057605236646,0.0015487304498780833,0.00013176544703831608,0.0014169650028397671
881.7017577588811,0.03667377327175317,0.03134702458655237,0.005326748685200799
896.0673920976982,0.017613677451637402,0.010530633951834366,0.007083043499803035
906.9685119123296,0.02119390630709163,0.013003843888247754,0.008190062418843874
936.3222789308998,0.04324041848927401,0.025889112529017495,0.017351305960256514
949.463843458156,0.004969203188505686,0.0005298548038512046,0.004439348384654481
982.403780835626,0.009339960671337588,0.0010698425147309353,0.008270118156606653
995.6010956545194,0.0059101708923139295,0.004993297982568635,0.0009168729097452949
1021.2665695360001,0.005192785672158847,0.0036788221097263595,0.0015139635624324876
1034.3548613808857,0.0032698871750093846,0.000346611401362475,0.0029232757736469095
1043.8034113758176,0.001415060026727733,4.598516369086094e-05,0.001369074863036872
1052.6774120924906,0.013958992521390982,0.0038675206315040714,0.010091471889886912
1062.8480331836936,0.0519044447701643,0.03664954370067211,0.01525490106949219
1077.6334386252743,0.008705663858998878,0.0057649678441452235,0.002940696014853654
1085.5035531150393,0.048719942806901353,0.013601156357349086,0.03511878644955227
1090.3837767858088,0.04941289013103624,0.0007846694865680878,0.04862822064446815
1099.3760126124255,0.013523417140042671,0.010948346777968954,0.0025750703620737165
1104.4726383744346,0.025910272859710596,0.00038287493461487324,0.025527397925095723
1107.3834187733328,0.03062803446581254,6.249004677189431e-06,0.03062178546113535
1133.1743994680596,0.030857696836393306,0.021942436118154766,0.008915260718238538
1159.6252873136764,0.03904061500830747,0.0020163416630249466,0.03702427334528252
1190.2424434930713,0.059699205415823506,0.03199818359456868,0.027701021821254827
1198.7177737305267,0.003447556110269245,4.087346525031103e-05,0.003406682645018934
1225.8133557231395,0.0050676144566704825,0.001800628946365504,0.003266985510304978
1238.5184933768028,0.0021838045250755353,0.0007111902448685922,0.001472614280206943
1250.7761813136508,0.012842887319783277,0.009522356031316698,0.0033205312884665794
1267.4628965136396,0.0013679304651248304,0.000411630857827178,0.0009562996072976525
1277.304135995711,0.004008106799793275,0.0019924576069722524,0.0020156491928210226
1287.0258427182077,0.0003776887530744327,3.7308976965248727e-06,0.00037395785537790784
1303.2779157841821,0.012659552428280822,0.0001560550180250497,0.012503497410255773
1307.0268172338617,0.005746287134043777,0.0006126014569702681,0.005133685677073509
1320.728932569025,0.003104533972441537,0.0021657949655216426,0.0009387390069198944
1328.1584441730304,0.07906379038835919,0.0001701233941692463,0.07889366699418994
1330.345925504303,0.004462907249734242,0.00035594895526961187,0.004106958294464631
1333.021613134194,0.046400903734747,0.0001939037203886326,0.04620700001435837
1333.7548422870893,0.01776780320768514,0.00014570301204639192,0.017622100195638746
1337.644712147267,0.0068477408379717915,5.2606806737933886e-05,0.006795134031233858
1342.9350102688816,0.004609467151830389,6.798731445939936e-06,0.004602668420384449
1351.2300195289963,0.013164470032287327,0.0007009465513618937,0.012463523480925432
1376.6030169732544,0.0044088451332621684,3.8093707265953915e-05,0.004370751425996215
1382.285525548356,0.004463088567687868,0.0008546652794729379,0.00360842328821493
1398.4885345303544,0.0009799668467182275,0.0001896207390327907,0.0007903461076854369
1405.5643999745453,0.001939679359367629,1.9623008885224415e-06,0.0019377170584791064
1412.8815712550227,0.0012203710452716903,0.000759135720189056,0.00046123532508263426
1413.4663749940885,0.0010048554443821804,4.181990497797435e-05,0.0009630355394042061
1417.264195279366,0.0055853578619114155,9.495383602512571e-06,0.005575862478308903
1418.260843579578,0.003570345637527283,0.0009872901283051834,0.0025830555092220997
1419.919535649454,0.010533164173160848,0.00020521120585347626,0.010327952967307371
1479.0761649374263,0.01873541646334509,7.919357095073173e-05,0.018656222892394356
1480.0308232174698,0.006521509329327542,0.0005403864681409575,0.005981122861186584
1480.8681865213746,0.020669538329806277,0.0024086411417960953,0.018260897188010182
1482.7504489034263,0.05123637360747713,0.007138329472571358,0.04409804413490578
1483.8743173782213,0.0993729727332485,0.000863535881093929,0.09850943685215456
1484.220785119924,0.054560339619154075,0.0007150274306177622,0.05384531218853631
1486.091002062321,0.046665243410113695,3.539938542613639e-08,0.04666520801072827
1488.7303289757897,0.02542906242593269,0.000875988418894244,0.024553074007038447
1490.8056556785937,0.0011399778212387926,9.001980192630384e-05,0.0010499580193124888
1493.853657084353,0.026715290593678723,5.421516291607732e-06,0.026709869077387115
1496.5599483845924,0.00672521001104162,9.290461105763296e-05,0.006632305399983987
1497.5971906590803,0.006339474988368081,1.748181101617054e-05,0.006321993177351911
1499.3105283212858,0.0016151610757915158,2.4942309516959862e-05,0.001590218766274556
1503.168863216654,0.009436162536035199,2.4153056353648812e-05,0.00941200947968155
1504.86720085615,0.0025657216669176764,2.479525965765749e-06,0.0025632421409519106
1505.3894572084953,0.0015245637491563778,2.8694265691065337e-05,0.0014958694834653124
3022.5705698464544,0.21385149265055808,0.20615532870710246,0.007696163943455622
3023.6021401087837,0.00918733393606028,1.2273352831605405e-08,0.009187321662707448
3024.395711360175,0.09321807046410699,0.03401405749151927,0.05920401297258772
3024.814006968575,0.4834481462814158,0.47771622993651175,0.00573191634490404
3025.9085936827983,1.2346402281702178,1.1411148001045899,0.09352542806562789
3027.8565126117446,2.151043959733115,1.9511760260664848,0.19986793366663017
3029.43234474456,0.25899259103714456,0.2179406858430268,0.04105190519411774
3034.060963303714,0.29283546560787516,0.2255142253746895,0.06732124023318568
3035.520336818594,0.10247617466112689,0.08977685785141223,0.012699316809714664
3038.9639710769666,0.3374827139532404,0.3053617717272267,0.03212094222601368
3039.972900032091,0.5235660986207967,0.2185127624255336,0.3050533361952631
3040.946572293496,0.3133114968622247,0.2634798412245154,0.04983165563770928
3045.8632954956715,0.5313463477696427,0.008409388352332415,0.5229369594173103
3049.749386520231,0.9881047309222566,0.9440387953041207,0.04406593561813585
3050.3344698872115,0.508868285409684,0.007014405509352018,0.5018538799003319
3052.4525916928437,0.6425749828117778,0.5836280764157168,0.05894690639606107
3054.5431901983106,0.1548484091866617,0.0955969518247373,0.05925145736192441
3059.992708790237,0.5435067985103204,0.26699099081897587,0.27651580769134454
3062.1303594470132,0.7675659974954996,0.5488550115077331,0.21871098598776648
3064.8166892915438,0.026918908965476367,0.021366645548093963,0.005552263417382404
3074.4967913491123,0.1678679566324287,0.04845466916229235,0.11941328747013635
3075.0672726785697,0.13737793628966105,0.016965423991743764,0.1204125122979173
3077.740813332222,0.4617840687312532,0.14220744206890146,0.31957662666235176
3088.127087316893,0.01683253210072433,0.003087024252245902,0.013745507848478427
3090.46494380093,0.011212987433062531,0.0001296758755935971,0.011083311557468934
3092.906988351257,0.029836467083008654,0.00889609966904381,0.020940367413964846
3112.820616674002,0.1326835326164828,4.9540631548075775e-05,0.13263399198493472
3116.365851130333,0.2943666249745305,0.053416386951488606,0.24095023802304188
3120.963449824031,0.39509246965010786,0.057452186326972667,0.33764028332313517
3126.0319055974446,0.19854492037532187,0.016916091075977663,0.1816288292993442
