frequency_cm1,total_intensity,isotropic_intensity,anisotropic_intensity
2.2169900219204703e-05,0.0,0.0,0.0
2.3854680072937332e-05,0.0,0.0,0.0
2.7795261410100903e-05,0.0,0.0,0.0
0.9693448229651034,0.0,0.0,0.0
0.9825154799394846,0.0,0.0,0.0
2.539325809611066,0.0,0.0,0.0
10.892103765357838,8.586253210659552e-05,2.1294360578988495e-08,8.584123774601652e-05
16.776348347094967,0.0008428704782894628,9.90204593249346e-07,0.0008418802736962135
25.449695689176558,0.004727126916894371,1.0462843769531122e-08,0.004727116454050602
32.9625872314056,0.00015848486849315459,1.311321916732235e-10,0.00015848473736096292
44.93444270831471,0.0028713013151075517,2.082158250662217e-05,0.0028504797326009295
50.738339787616724,0.0011771073995903217,6.703069284556805e-10,0.0011771067292833933
64.03935881405201,0.0006052618679003382,2.777322380200592e-09,0.000605259090577958
79.9893512198112,0.002023026723414989,1.3063328361274134e-06,0.0020217203905788616
83.71518074685721,0.0057451821062442865,0.00040388339537709143,0.005341298710867195
96.56599219951431,0.00020260676768811344,1.1761319323965602e-07,0.0002024891544948738
110.11859939844949,0.0007649859070333665,3.1120158742011024e-06,0.0007618738911591654
124.92527814421476,0.016152578196533082,0.0063793691080756285,0.009773209088457455
128.1891398270951,8.166183807324519e-05,2.849732492211887e-07,8.1376864824024e-05
136.82476442220337,0.0057489656103780476,0.0045754624056568065,0.001173503204721241
138.04508701219407,0.001107420440481214,0.00027988987007983475,0.0008275305704013794
155.61802948114885,1.0625305111392734e-05,2.848371171514895e-07,1.0340467994241244e-05
160.77832283522574,0.00025337613181877403,5.741187815726896e-07,0.00025280201303720136
174.77651188059804,1.0050746644060112e-06,4.732984350691433e-09,1.0003416800553197e-06
175.74232059960153,9.68946754590714e-05,1.0327870865261107e-07,9.679139675041879e-05
185.29612128608568,0.0034625278815144937,0.00012138105223558669,0.003341146829278907
236.4714590796156,0.0004292226473055124,2.6158784051045994e-05,0.0004030638632544664
245.92776741189405,2.11531244559386e-05,3.221642001012032e-09,2.1149902813937586e-05
269.5260831156682,0.0022440779255163304,5.60517376806189e-05,0.0021880261878357114
309.7556820150393,0.0022259711282782905,0.00011880982290208944,0.002107161305376201
356.29832146611034,0.0160005218076348,1.2469328236143166e-10,0.016000521682941516
375.0326336857633,0.004639136480199899,0.0036159589697478023,0.0010231775104520965
381.946182809608,0.0015515633485289975,0.0010186158715781283,0.0005329474769508691
448.47181376365177,0.0012751301265170073,0.0001442777428077538,0.0011308523837092535
461.35896411826195,0.000995301428200212,8.483508263578653e-05,0.0009104663455644253
504.3548829120243,0.0011913372702518088,0.00010968598582201714,0.0010816512844297917
515.6152084504045,0.0009153253869993521,0.0007320166802342544,0.00018330870676509775
547.183881677531,0.005477328052331077,0.0006497940819908034,0.004827533970340274
685.4015719738758,0.012473488469200001,3.2193363228148856e-09,0.012473485249863678
701.1065185509127,0.01220030697461349,6.559109387862281e-06,0.012193747865225627
727.8200947703914,5.060813492935909e-05,6.1151219736368105e-06,4.449301295572228e-05
728.3768809307031,4.6121202745819544e-05,3.8637822143169283e-10,4.6120816367598114e-05
729.6359287528461,5.29974500529929e-05,9.938249767073201e-08,5.289806755532217e-05
732.5344331410696,3.323350691028387e-05,1.3083937974789753e-07,3.310266753053597e-05
738.8010385791667,0.00026100094208741947,6.026460713891492e-07,0.00026039829601603033
750.5274971066821,4.526170997635584e-05,1.7500725649971014e-08,4.524420925070587e-05
769.9366258364032,0.0003888172296679451,3.2083926557292758e-09,0.0003888140212752894
797.0169886145638,3.124646452152179e-05,1.7503673800888793e-07,3.1071427783512906e-05
831.2064837946684,0.00047647922235306194,7.281251699285122e-09,0.00047647194110136265
870.5977735485553,1.0682136613992309e-05,8.426612780529336e-10,1.0681293952714256e-05
908.2715135788059,0.03314789363398571,0.02018661453719513,0.012961279096790582
912.58612947792,0.00048030249193119743,1.4142593160233514e-05,0.0004661598987709639
951.638674439958,0.014008950551658494,0.013620672205955657,0.0003882783457028374
955.164662061185,1.2268326092411928e-05,8.530916607134906e-06,3.7374094852770234e-06
996.1094074062902,0.0002937318420878838,3.852979721230607e-09,0.00029372798910816254
1004.241052980889,0.00045865819981873765,0.00025391545891218257,0.00020474274090655507
1009.1691394724113,0.0006299753790865614,0.0005760846686793674,5.38907104071939e-05
1023.9149740842264,0.005450582137894266,0.0015483365526611165,0.0039022455852331496
1032.8970929066118,1.764978559284943e-05,5.523710255411385e-06,1.2126075337438045e-05
1041.5714291145814,0.008358778581777495,0.00577709309543738,0.0025816854863401147
1046.4322077377647,0.005905453805224614,0.0013113618455082511,0.004594091959716363
1061.2082788232233,0.00020237165628102775,6.799015354427237e-06,0.0001955726409266005
1062.3759477790438,0.011336339258320052,0.0027919685318352344,0.008544370726484818
1075.9741997206324,0.002986564747336766,0.0023546513225845135,0.0006319134247522527
1083.7167446420838,0.03148518517166835,0.005115696382456992,0.02636948878921136
1087.4966379033892,0.008509025901785577,0.0002799251313136042,0.008229100770471972
1088.639247500811,0.1030048098236743,7.409222000562858e-05,0.10293071760366868
1091.300291190695,0.0002871585338875958,5.5678892237092055e-05,0.0002314796416505037
1092.2199489227826,0.00035637996444404176,6.0279944179298585e-06,0.0003503519700261119
1093.3578791453756,0.00859113701988333,4.4065958674098765e-06,0.00858673042401592
1127.7394879352496,0.0968473916652067,0.046389505007916505,0.050457886657290195
1141.3023327569408,0.002864621881943514,3.619865785209536e-07,0.0028642598953649927
1157.5859234081238,0.3026787841836264,0.17194085242924773,0.1307379317543787
1204.4234634194338,0.015608966338573999,7.006663134804589e-07,0.015608265672260518
1215.6850908969966,0.0013699696501973209,0.0010206153364838207,0.00034935431371350024
1219.509709692671,0.001272075817868021,8.233600816883531e-07,0.0012712524577863328
1237.104675626683,0.00022168453071299424,0.00011112403445469127,0.00011056049625830296
1240.728853416206,0.00044949112634584914,2.1337727966942002e-09,0.00044948899257305245
1258.5122261515717,0.00016267820059480282,3.9442611734464e-05,0.00012323558886033882
1262.7432643110901,0.0002719734264339196,3.3227077062123205e-07,0.00027164115566329837
1279.9614298203483,0.0008487827659352837,5.209699998115131e-09,0.0008487775562352856
1283.1337582436167,0.0009373538742848392,1.643037301870284e-08,0.0009373374439118205
1300.745146578875,8.908929248395385e-05,1.2340087205449709e-06,8.785528376340888e-05
1302.1589531054954,0.0011492872819707642,0.00022857279663162698,0.0009207144853391371
1314.9831989285512,0.007059449041028108,4.723266603473799e-09,0.007059444317761504
1324.056412311545,0.19761397069042141,1.2929842166277567e-08,0.19761395776057925
1324.84787184694,0.0032695719556741338,8.226465394632135e-05,0.0031873073017278123
1325.0407856847248,0.003485287573866534,1.531386203413237e-06,0.0034837561876631205
1328.427373785886,0.0004374741111550545,1.0217828765988032e-06,0.0004364523282784557
1331.0410758871217,0.009434084434904727,1.1365221566277746e-06,0.0094329479127481
1334.2674696242104,0.0034430587107237053,1.017724706531881e-08,0.00344304853347664
1335.8549539793655,0.0009233010175071729,1.2589779637525059e-07,0.0009231751197107976
1338.2353175012754,9.06454561664255e-05,4.5792263568483196e-08,9.059966390285701e-05
1338.5389480910585,0.0008602530816642423,1.588367383797816e-07,0.0008600942449258625
1347.2853402011606,0.004664462401129516,0.0013872318343905057,0.0032772305667390107
1368.3273483806986,0.008738152648763112,0.000992510915603183,0.007745641733159929
1386.1408222767584,0.009872117325914299,0.00333430260970483,0.00653781471620947
1400.3417179645317,0.012202277870259393,0.003007692195696451,0.009194585674562942
1410.1360058993869,0.005308371351452464,0.0016096428062439172,0.003698728545208546
1412.9140338779152,0.003946837368658699,0.002223669572242778,0.001723167796415921
1417.3810032131119,0.003462176331852489,0.0008179918300338157,0.0026441845018186734
1419.8661018143578,0.015652059963528104,6.781184576311266e-06,0.015645278778951794
1421.0398621094462,0.00047358524947938116,0.00019786140915522426,0.0002757238403241569
1421.49619582951,8.104618184013863e-05,2.3397084102752726e-05,5.76490977373859e-05
1473.579758551016,0.01966781617604696,1.9400679376266524e-05,0.019648415496670693
1479.9860330431577,0.0014150993850022447,0.00023734285888212236,0.0011777565261201224
1480.1809220304965,0.00041294569736221497,2.9365010728961725e-06,0.0004100091962893188
1481.4484848599157,0.015750349079446536,0.0006589148693829362,0.0150914342100636
1481.9108699991418,0.00016021347613855933,3.1061282717238434e-05,0.0001291521934213209
1483.5143229438256,0.005161001912044912,0.0022895085801878964,0.002871493331857015
1484.2323803561592,0.04513661690362216,0.0033453681258711807,0.04179124877775098
1485.3233967548924,0.2833814430649999,0.025183402259075113,0.2581980408059248
1487.1316689358955,0.0023107055571942835,0.0014419980030693814,0.0008687075541249018
1489.8059169908731,0.02211107264190531,0.002743118483719219,0.01936795415818609
1493.1453605234576,0.002180061019439396,0.0005357460492400089,0.0016443149701993872
1493.744853503116,0.02704263828269173,1.1219972246054716e-07,0.027042526082969268
1496.7195722988886,0.003504162668694672,0.000560029378848791,0.002944133289845881
1500.0978116442136,0.0016192688100295305,0.0004559913555287296,0.001163277454500801
1503.0335316941032,0.0008046766819170324,0.0001115466142575328,0.0006931300676594997
1505.2657147157913,0.001383357027086021,0.00021217309597110483,0.0011711839311149162
1506.463133501012,0.0008135550077967278,1.5872895412020044e-07,0.0008133962788426076
2248.336462026432,1.1223402681483647,0.7930520882905843,0.32928817985778036
3021.187961715587,0.01526747221924756,0.01312661468931661,0.002140857529930949
3021.325880553578,0.004055474085166287,0.0036487136640761665,0.00040676042109012017
3022.340711445412,0.03435561303410403,0.03138354168382785,0.002972071350276184
3022.8424311921985,0.004377629530849514,0.0043340635213000795,4.356600954943443e-05
3023.5072497677215,0.17499837534184554,0.15646791296346474,0.018530462378380793
3024.5125018094936,1.186645597849585,1.167561931656094,0.01908366619349105
3025.6713283941567,3.605198479351956,3.5381193783189158,0.06707910103304034
3025.910827096374,0.7908042354225355,0.7823628601605724,0.008441375261963069
3029.378475024957,0.10488814155383931,0.0964018617106817,0.008486279843157607
3033.0350146653886,0.037326688259916016,0.03417961662899541,0.0031470716309206096
3036.5156723657324,0.09482068123702463,0.08608322410498356,0.008737457132041057
3039.3949667812467,0.048682799494500315,0.0443604603726017,0.004322339121898619
3041.1209254570713,0.38966085123515315,0.3578044291441592,0.03185642209099394
3042.7455140433603,1.5847917105119376,0.00025082087287041485,1.5845408896390671
3043.628474791391,0.048958770364373023,0.00011131705322039358,0.04884745331115263
3045.1534505851673,0.5267926102248347,3.170137646843491e-05,0.5267609088483662
3047.4838129646405,0.02501263211649351,2.3902811585765107e-05,0.024988729304907743
3049.858098780257,0.9151527404935805,0.90776532618658,0.007387414307000528
3050.791406405651,0.19176558922607476,0.0001270114363694414,0.1916385777897053
3053.6229078571423,1.034924910572512,1.0048951716445766,0.03002973892793539
3054.861148553325,0.002838253979047151,2.398396818270818e-06,0.00283585558222888
3059.967870471668,0.09052945795645154,4.261074081066208e-06,0.09052519688237047
3063.377846916483,0.060218510608712195,0.04889154544154209,0.011326965167170102
3066.0006669309196,0.004131022372923713,2.0801123857703896e-07,0.004130814361685137
3071.942425412862,0.09422568142983703,7.866828628277217e-07,0.09422489474697421
3077.310849403067,0.0018152086963242999,2.1658057424692883e-07,0.0018149921157500529
3082.083405984719,0.12869194224639874,1.1944442053139534e-07,0.12869182280197822
3085.763359925379,0.05963834210347227,2.2664659602856365e-06,0.059636075637511984
3088.1287556671423,0.1483411217336434,2.006621307822127e-05,0.14832105552056515
3090.1754831108865,0.016905931412470692,8.029060617075708e-05,0.016825640806299936
3109.0674212117783,0.0032014713145017263,5.580924029249325e-08,0.003201415505261434
3112.806868825045,0.12863499116288885,4.088209738695807e-06,0.12863090295315016
3120.9569458017104,0.40971776977896346,0.0625991703076466,0.34711859947131685
3479.947862428048,0.21771692212920415,0.13532527773755199,0.08239164439165217
