frequency_cm1,total_intensity,isotropic_intensity,anisotropic_intensity
0.5653788593845852,0.0,0.0,0.0
0.35810518048662277,0.0,0.0,0.0
2.5269906617741396e-05,0.0,0.0,0.0
1.609991958917831e-05,0.0,0.0,0.0
1.465661124767388e-06,0.0,0.0,0.0
1.2824788808052334,0.0,0.0,0.0
5.141878463123502,0.002298664704200923,2.7854259068338817e-06,0.002295879278294089
9.824329789991832,0.0005057949611538503,3.5474958400732256e-06,0.000502247465313777
11.2396920475918,0.001060284362969748,4.1122412150856326e-07,0.0010598731388482396
18.51136323794839,0.00029606645398385604,1.0866120810435251e-05,0.0002852003331734208
20.3522449233464,0.00038401011645928027,1.213464816976104e-06,0.00038279665164230416
28.95689015578473,0.0005695258836210472,3.0257570966826638e-06,0.0005665001265243645
30.817786726344533,0.0007244990339783416,3.785661162774547e-07,0.0007241204678620642
33.77947686829766,0.0002583836891975061,1.9168852089811262e-06,0.00025646680398852496
47.43753603233147,0.0006831718210725926,0.00017057652300877366,0.000512595298063819
58.651831411814236,0.0008606824101894159,0.0004470913579429486,0.00041359105224646734
60.116783750024794,0.0003273356225465333,6.777163006528114e-06,0.0003205584595400052
65.35087861870875,0.00015814975649536356,7.212898410903496e-08,0.00015807762751125453
72.35286171017891,0.00021030666900222005,3.6576716899995704e-05,0.00017372995210222436
91.68095230066149,0.0002347328059365113,0.00013214182297430452,0.0001025909829622068
93.54943184206137,0.0005993315367526374,0.000126790887972278,0.0004725406487803594
103.09550732832075,0.0005651095931838463,0.0004895420625077102,7.556753067613607e-05
111.91137441612048,0.000357403538352724,0.00014664685681080154,0.0002107566815419225
115.32988857139286,0.00032120281423876336,4.4841557318573486e-05,0.00027636125692018985
125.64764005203915,0.00015634321356242933,0.00012913982890001236,2.7203384662416957e-05
136.97599959761493,0.0015813303979438215,0.001229607321703907,0.0003517230762399145
144.77403927903615,8.991700717263481e-05,3.976220225390149e-06,8.594078694724467e-05
146.94413786714418,0.000459876381618527,0.0003795620493715522,8.031433224697478e-05
155.47326587058095,4.154097567236458e-05,3.0654587450584007e-06,3.847551692730618e-05
174.31979511392066,0.00046340985005813935,0.0003856337718946127,7.777607816352663e-05
193.47194066809536,0.004771873036640669,0.0038941475129449,0.0008777255236957689
201.69125226419527,0.0016560427631513233,0.0008365981760168013,0.0008194445871345219
208.2376473567632,0.0030990222892556298,0.001910700495209732,0.0011883217940458976
210.77749798819903,0.0002129582603857832,0.0001212158727902262,9.174238759555701e-05
238.03628342983313,0.0032248209659517914,0.002649444283792749,0.0005753766821590421
243.93556490038907,0.00020078446018439658,0.00012635032103792447,7.443413914647211e-05
246.18683765447315,0.0001718049761386527,0.00011473492425001847,5.7070051888634225e-05
250.40071428108686,0.008170085039988229,0.005661896934037673,0.0025081881059505554
272.37621969549474,0.0023075307825115364,0.001383027647202307,0.0009245031353092294
284.7867275402477,0.0004927171584132935,0.0002999433466137562,0.00019277381179953732
288.56800262650324,0.00177339504798703,0.0009012244707882663,0.0008721705771987637
319.8182230121676,0.006784504984092143,0.0024493804806251266,0.0043351245034670164
338.54997353512954,0.0006223205971552601,1.9382812155703707e-06,0.0006203823159396897
344.7961271955235,0.004396760559368473,0.00396683529727286,0.0004299252620956127
377.14533807105363,0.00646408363100848,0.0019886874694824896,0.00447539616152599
402.1171513683685,0.0026932541640751523,0.0014917670830554186,0.0012014870810197337
428.47332664542216,0.00242272791807695,0.0011408001852771423,0.0012819277327998074
450.8971560723318,0.0018163061880141335,0.001054046511928118,0.0007622596760860156
472.2457377996037,0.00015863252459473375,2.4469596202639496e-05,0.00013416292839209425
493.91252755377707,0.0043577165628180745,0.00039721231701406396,0.00396050424580401
522.7648720359439,0.001701062209952791,5.112983597101729e-05,0.0016499323739817737
547.7669436648783,0.006630432597846615,0.0018175804120964512,0.004812852185750164
556.0862770797497,0.0027694647989707976,0.001227616221241752,0.0015418485777290453
718.6395175211774,0.0017209437182489663,1.192328238487303e-05,0.0017090204358640932
724.4072995814043,0.000820743719095201,3.774761320411472e-06,0.0008169689577747895
727.0380642001754,0.00073034098289683,0.00012602498420971866,0.0006043159986871113
728.6144296495112,0.0008977068135768552,3.1269086468047235e-05,0.0008664377271088079
732.9132229806706,0.0013907827358494308,0.00022109388160101396,0.001169688854248417
737.3230004995291,0.0010747949498238157,0.0001092277236358403,0.0009655672261879755
747.5165781223263,0.00664317443209075,0.0008553639337961503,0.0057878104982946
753.1377872835434,0.002589971649787689,0.0012659264909220486,0.0013240451588656405
762.8077037283665,0.002372938887513676,0.0003042715781097275,0.0020686673094039484
775.4884689118451,0.010352815726469887,0.008507513791721247,0.0018453019347486395
783.471140557705,0.00269614280681438,6.355506424960901e-05,0.002632587742564771
811.750611809214,0.007614602940044171,0.0008666333331358504,0.006747969606908321
820.2929311414358,0.0046245381064670054,0.0036052286895318975,0.0010193094169351081
840.4811943714508,0.028140633447524738,0.02322966154318253,0.004910971904342208
868.8933273822462,0.08168184962911214,0.06771716824632554,0.013964681382786606
880.8734448973153,0.04104261245867534,0.009822133549790805,0.031220478908884533
890.8907311822718,0.05091969999102377,0.03514446827390399,0.01577523171711978
905.8791408312541,0.016698714069577444,0.00794355627668998,0.008755157792887467
911.1921499154669,0.04061729679772806,0.0318301566698823,0.008787140127845764
913.9719196954464,0.042506870719346695,0.018162966520032648,0.02434390419931405
919.3765174274689,0.02724454326902026,0.00814682730421546,0.0190977159648048
924.6499163625764,0.01965233073595731,0.008059228473434918,0.011593102262522392
949.8584143850765,0.02017314378681838,0.01633754291250451,0.0038356008743138693
964.7362353933975,0.017742098472704162,0.0020023650303147263,0.015739733442389436
974.8564596349407,0.03333515520711475,0.01668240865461203,0.016652746552502717
985.2109055473212,0.015178067388775604,0.014347613277904594,0.0008304541108710096
1004.9917056842025,0.007776002557131504,0.0026818036399091734,0.0050941989172223305
1018.2481139136713,0.005394953948100659,0.000508511276779799,0.0048864426713208595
1025.4197989571226,0.005760444111738997,0.0005832391979615908,0.0051772049137774065
1026.8589298097575,0.012318095793492061,0.00452537425005272,0.007792721543439342
1040.3930198758533,0.006595436739951032,0.005128062110057653,0.0014673746298933792
1043.2977884245981,0.012542762248109882,0.004609433029800583,0.007933329218309299
1047.662693866171,0.023441451392754775,0.019321810054305777,0.004119641338449
1061.3984921225517,0.0020570610728515397,5.280053973698629e-05,0.0020042605331145533
1065.0235587867928,0.01782863107088374,0.007075252617080903,0.010753378453802838
1071.1945461012433,0.005677448604278531,0.00328244174144244,0.0023950068628360906
1080.253778340973,0.009433020676474108,0.00015385260671696628,0.009279168069757142
1080.7391979485792,0.020890456068417787,0.005367026141989596,0.015523429926428193
1088.120827317781,0.0019361128779344598,0.0009155877158202946,0.0010205251621141652
1090.0767186312496,0.025468810020444117,0.00021982864432803297,0.025248981376116083
1090.9222747367555,0.03589951202513811,0.0005597239501845942,0.03533978807495351
1092.9954521964842,0.0025639352168516155,5.32487286740249e-05,0.0025106864881775906
1103.0250442938266,0.018570742327006003,2.386961982173603e-05,0.01854687270718427
1107.044538915372,0.04829264212706124,0.000177372504699381,0.04811526962236186
1110.6259731495047,0.009106598513827573,0.0006422229502508578,0.008464375563576714
1112.3798097506751,0.038022152180444926,0.0012183171026607829,0.03680383507778414
1123.9892101004361,0.0015346130499381042,0.00013891238844951638,0.0013957006614885878
1124.9218669657673,0.05166250645053045,0.00023150111588110837,0.051431005334649345
1141.5889454080343,0.04436419576318004,0.03010289907437117,0.014261296688808874
1154.0748534995448,0.07436430337404631,0.020096282984263115,0.054268020389783206
1179.228125921567,0.037415739313170146,0.009264157064284451,0.02815158224888569
1184.2260983887613,0.02972589349209851,0.01694469937906935,0.012781194113029162
1194.3173687825051,0.009970623787360158,0.0041002969842978,0.0058703268030623566
1203.632514368396,0.006882510655160634,0.004134415050717126,0.002748095604443508
1220.1043606467663,0.004370099996598374,0.00021948189001131334,0.00415061810658706
1226.1679310446546,0.0011617842854321238,2.6361329889495533e-07,0.001161520672133229
1231.7171822283367,0.021843346708436063,0.013363907262794385,0.008479439445641678
1248.2427033598674,0.000891312180290657,2.5348627130045897e-05,0.000865963553160611
1257.3870649104251,0.000937334920512299,0.00016962941480117014,0.0007677055057111289
1261.1148292199034,0.00828075504452574,0.005029898400861437,0.0032508566436643036
1269.8356571110814,0.00401164027639582,0.0025202169436023916,0.0014914233327934278
1276.3269095313326,0.009614562796967298,0.006116218441793288,0.0034983443551740087
1284.485870882887,0.0080997244508524,0.00018821284255679616,0.007911511608295603
1286.7023513954728,0.0008908647344194581,7.339011617394847e-05,0.0008174746182455096
1293.9020938766778,0.002137852027826197,0.0011532272048986724,0.0009846248229275249
1300.6637707653308,0.0014816901613431683,3.15898383042653e-05,0.001450100323038903
1304.4750411245457,0.0023279803837777738,0.00014074744434904268,0.0021872329394287313
1310.3294194795403,0.010069425940981572,0.0006288730684595941,0.009440552872521978
1313.3745658401037,0.020987425668005214,0.001960766629977164,0.01902665903802805
1322.5479695450165,0.019830318533954443,0.0001774292497982181,0.019652889284156226
1324.0090359658166,0.0022153314622463597,6.770006843989385e-05,0.002147631393806466
1327.312225207797,0.015596262965611387,8.261580170748474e-05,0.015513647163903903
1330.1913233467342,0.07704553309071067,0.0003156827941936588,0.07672985029651702
1331.131051772238,0.002529775160861143,8.77333055762345e-06,0.0025210018303035197
1332.1476540622803,0.01290844434513278,5.491755789788417e-06,0.012902952589342992
1334.9768437263715,0.06853033661424086,0.00044493155046005853,0.0680854050637808
1335.5416262862884,0.01827939878504666,0.00012033545868584344,0.018159063326360816
1339.1284565143594,0.049163972800896655,7.004947762513875e-05,0.04909392332327152
1341.2364508594176,0.07885158791450465,0.0005193285805983486,0.0783322593339063
1341.840593324614,0.008308167271116976,0.000309405224077794,0.007998762047039183
1350.3692814021056,0.012504380993200922,1.171601548885547e-06,0.012503209391652037
1354.5742177725026,0.016703349003994793,1.3656750142656041e-05,0.016689692253852136
1356.5226351631356,0.0031367074476367995,6.428613009362939e-05,0.0030724213175431702
1359.420754210356,0.011000877496123709,0.001663178299213162,0.009337699196910547
1380.70239189633,0.004182764086156648,0.0005002780725205671,0.0036824860136360806
1383.2295519619158,0.011191981495029106,6.78787364495802e-05,0.011124102758579526
1393.089520058136,0.0018602025369041158,0.0005005166941515731,0.0013596858427525427
1394.8701873849943,0.006338328932163121,7.87924983757149e-05,0.006259536433787406
1404.6393328894696,0.0008436018970776795,9.552877414286464e-05,0.0007480731229348149
1408.0051956884583,0.005223800332982597,0.0029873144537219272,0.0022364858792606693
1409.0046443456788,0.0036834414706264267,1.8249760274151413e-06,0.0036816164945990115
1411.945378608799,0.0013432315203384974,0.000885172341294638,0.0004580591790438593
1412.5567363970563,0.0028405849432500655,5.870444639997466e-06,0.002834714498610068
1415.3048572383402,0.001092730580882324,0.00012284850499149282,0.0009698820758908312
1415.6837155159978,0.00206185446649133,0.0011656368027362957,0.0008962176637550344
1417.0469031340785,0.008903209819189442,0.0037367564062335953,0.005166453412955847
1418.0478048536,0.008712846989663268,0.0022952822452098273,0.00641756474445344
1419.5714580472727,0.012149800282402583,0.00018888587714375687,0.011960914405258826
1420.0265568786383,0.006961286413881021,0.00026581360514080975,0.006695472808740211
1478.5241538524315,0.024946411962347724,0.004045217452414873,0.02090119450993285
1479.02800191949,0.03240153082662341,0.003134761055189858,0.029266769771433557
1479.624981843161,0.0054472237257557395,0.0008583603397985093,0.00458886338595723
1480.1563467237336,0.006762049062920211,8.44884755040103e-06,0.00675360021536981
1480.679085189312,0.008461666877723956,0.00048164405755287077,0.007980022820171085
1481.6439662236467,0.057868549090747054,0.0031920270258480425,0.054676522064899015
1481.9959257358264,0.03985735959673397,0.003183812308415466,0.0366735472883185
1483.1791297780628,0.06644829696544262,0.001074501930951165,0.06537379503449145
1483.9829728504933,0.16544771332376673,0.006942879202929218,0.15850483412083752
1484.6203577371843,0.007239459079992224,1.2974655626786913e-05,0.007226484424365437
1485.2843507817108,0.010650409585540048,0.00041627038617180834,0.01023413919936824
1485.8636927875182,0.06456657521158811,0.0017234406047180852,0.06284313460687002
1487.4118217450462,0.02188808022255884,0.0008421179442425906,0.02104596227831625
1488.7891553311158,0.030223376408610867,0.00048568299418759854,0.02973769341442327
1490.3483268822677,0.013451291874177502,0.0021979286636764745,0.011253363210501027
1493.2517204920678,0.004377232293408542,0.00010100490989759619,0.004276227383510946
1493.784084689351,0.026797401454965317,4.4954804368165897e-07,0.026796951906921634
1493.808662182827,0.0134481648852961,0.00019354835097152432,0.013254616534324576
1493.8858673978593,0.0041080049011270724,6.331695133561645e-07,0.004107371731613716
1497.9757595277856,0.005861775175324807,6.503330068514209e-06,0.005855271845256293
1499.5848034857308,0.001737539485148088,5.755782545779106e-06,0.0017317837026023088
1501.042004289085,0.0023044724791895614,3.191786883726714e-05,0.0022725546103522943
1502.3846124958384,0.0008538353716774862,5.193384076807368e-05,0.0008019015309094125
1503.5927612127925,0.002921548074968335,4.090799096712967e-05,0.002880640084001205
1504.1830724190731,0.011848860224644538,1.9679092912907635e-05,0.01182918113173163
1504.7976860034053,0.0028567097788775994,6.756287628115592e-06,0.002849953491249484
1505.8875795563706,0.0022989280938489533,2.3940698551259383e-05,0.002274987395297694
3022.6781116952875,0.4444794465341309,0.42348784185840427,0.02099160467572664
3023.6379855918926,0.1050790095031848,0.07952907505394313,0.02554993444924167
3023.6996207052866,0.21326381696101593,0.21020241591358146,0.0030614010474344622
3024.2812315321153,0.13393785008295472,0.024065621522227874,0.10987222856072684
3025.795931189625,0.13266582294093077,0.1189109285846616,0.01375489435626917
3025.8928163922233,0.20491838076118724,0.08794224314873138,0.11697613761245587
3026.2134081851136,0.6686690717670546,0.5789334930579624,0.08973557870909225
3026.690315638927,1.7510482628285644,1.612502539117683,0.1385457237108813
3027.2188692210984,0.24343808920545024,0.04810432413580481,0.19533376506964542
3027.4164134403286,0.8640668840395755,0.8205283515429914,0.043538532496584126
3028.717850339999,2.861514696482658,2.6619596252555677,0.1995550712270902
3030.385935667879,0.10865059724280396,0.09756249537213849,0.011088101870665478
3031.789207824307,0.12058016438256343,0.09140077122012179,0.029179393162441638
3032.608388904159,0.14643497575546413,0.13331754988245886,0.01311742587300527
3035.1238966873952,0.058555470082330835,0.02612482044822186,0.03243064963410898
3037.6552052427555,0.3123792608200333,0.19412696057033346,0.11825230024969985
3038.687795345434,0.09428039621014851,0.0010443907785217458,0.09323600543162677
3039.09019132552,0.45745275529823554,0.34102516055019133,0.1164275947480442
3039.5668701038794,0.2597291552763626,0.13964363482356623,0.12008552045279636
3041.122020406474,0.34766142274821893,0.29597420677337116,0.05168721597484778
3042.4304297720573,0.4732548094645057,0.36993803160119665,0.10331677786330909
3044.9297986612714,0.7360585898551146,0.001863867089348687,0.7341947227657659
3047.192736166608,0.07184332196013887,0.02222595853404737,0.0496173634260915
3048.989186828022,0.6922856160841901,0.6559429336551826,0.03634268242900747
3049.5508109152493,0.8998743469669334,0.8933641364368394,0.006510210530093942
3052.9525135510426,0.23919239979256673,0.06787511938810904,0.17131728040445768
3052.979712642596,0.32722161958165263,0.2010284959853605,0.12619312359629212
3053.4510526814615,0.6288088142364844,0.5261328118111541,0.10267600242533022
3057.963672037194,0.4150515610421778,0.013178597063797022,0.40187296397838074
3060.3767050285637,0.28037064699716924,0.03556745941662695,0.2448031875805423
3060.8526835355583,0.1996355635896679,0.025385201992616672,0.17425036159705123
3062.5765045743956,0.4383604693794606,0.39410920911858405,0.04425126026087656
3066.3101699706685,0.2584490312909906,0.0900213228493979,0.16842770844159272
3070.27757742402,0.03485935928193315,0.018984658641409184,0.015874700640523962
3073.038854167589,0.5775077476936157,0.019339073961297755,0.5581686737323179
3073.862876937664,1.7459012404135659,1.3143176437267508,0.4315835966868152
3075.397279297686,0.5323787632325767,0.30090474178836185,0.23147402144421492
3078.8065824018163,0.0904283744754528,0.055900287739595746,0.03452808673585704
3079.3518290701236,0.8433153439594365,0.4473721735071649,0.3959431704522716
3079.7381849735366,0.10439165987454899,0.00549215940312442,0.09889950047142457
3081.843725570757,0.055790389460761695,0.0110166587906454,0.044773730670116293
3084.0164882021286,0.10945527548992769,0.0644558186344276,0.04499945685550008
3091.040262204495,0.026704350412257757,0.010141091962188053,0.016563258450069705
3093.0348239144473,0.02297879643062517,0.0016182587453151883,0.02136053768530998
3094.0003630990564,0.06770757875832949,0.017469487544822408,0.05023809121350708
3095.6306905431848,0.025187283390145497,0.011014906915898931,0.014172376474246566
3097.162873005417,0.0042658899354989874,0.0015596022256371064,0.0027062877098618814
3099.435998431032,0.024202985870265516,0.01181698784796096,0.012385998022304556
3112.4510197855443,0.12951188350693263,7.5334370638477165e-06,0.12950435006986877
3116.6912991770932,0.32871222597016586,0.06639190700487402,0.26232031896529184
3120.7363341180303,0.40898232748485713,0.0627322111616671,0.34625011632319
3126.796433136666,0.1958363361111031,0.008403394927305267,0.18743294118379783
