frequency_cm1,total_intensity,isotropic_intensity,anisotropic_intensity
1.6883520780153598,0.0,0.0,0.0
0.5645282969463308,0.0,0.0,0.0
0.473215716902682,0.0,0.0,0.0
3.573046771529735e-05,0.0,0.0,0.0
2.7706545324570672e-05,0.0,0.0,0.0
1.2777012905794507e-05,0.0,0.0,0.0
9.942945782555189,0.002974757559134793,1.5299343452945023e-05,0.0029594582156818477
22.365672103645565,0.0009376331108643818,5.609603478013835e-06,0.000932023507386368
24.444742126739456,0.0017397454394497125,1.4323468350314603e-06,0.0017383130926146811
27.36047516288178,0.00047399198224738135,1.9508886629533898e-05,0.00045448309561784745
32.2730846954259,0.000729147326226029,7.137577070431987e-07,0.0007284335685189858
51.218552348301145,0.0009265184462176854,7.399819184811126e-07,0.0009257784642992043
68.39590256413669,0.000849113276367958,2.2299803834148198e-05,0.0008268134725338099
74.46928017003918,0.0007487988379708182,1.5557680040440945e-05,0.0007332411579303773
81.18800015483602,0.0019383221861930778,0.00014089812876467235,0.0017974240574284055
99.91691217879149,0.00073639316688914,1.3971114013366745e-06,0.0007349960554878033
107.61350006382438,0.00026071009897640464,2.338993328798887e-06,0.00025837110564760576
122.33604829608218,0.0011924514328955113,0.0002538840725867972,0.000938567360308714
128.55043984187964,0.0005141024222293385,0.0001910839994464916,0.00032301842278284693
139.98598328020236,0.005984203955533919,0.0032441064160189594,0.0027400975395149595
144.03832408314113,0.0015854214708148505,0.0008352650280767063,0.0007501564427381442
161.33068748984186,0.0026464025905042817,0.002027071309239699,0.0006193312812645829
164.52043062146305,0.0001306063613243218,2.8276210147834838e-05,0.00010233015117648696
171.1209038618516,0.0037711628578609917,0.002779922392317677,0.0009912404655433148
188.05982079529642,0.0023422145825817637,0.000946393343242853,0.0013958212393389109
226.95941141909717,0.0002573064027571267,2.1047042421063465e-05,0.00023625936033606326
244.31630814809074,0.003869722607557845,0.0004976002811473448,0.0033721223264105
245.68152454089503,2.04177220530569e-05,4.48727127495057e-07,1.9968994925561844e-05
252.1331051262299,0.0030032477498701075,0.002695861125958952,0.00030738662391115537
266.367587352555,0.0003722510176772168,7.490366871283157e-06,0.00036476065080593366
278.2498503996414,0.008805803058380572,0.006314472687768949,0.002491330370611624
302.5183265276486,0.0014275803016945304,0.0008769363918748632,0.000550643909819667
374.6159493001876,8.73687881947668e-05,1.2440058048171443e-05,7.492873014659535e-05
399.08472518027577,0.003924768000486708,0.0031015090225319816,0.000823258977954727
412.0605667213571,0.0020494888544958694,0.0005059470511604683,0.001543541803335401
423.22665648905405,0.0073018803279188615,0.0022088528215247526,0.005093027506394109
453.1200758395379,0.00550655188840047,0.003442541203901396,0.002064010684499074
485.5841445296981,0.0039336925575374155,0.0032937648260370164,0.0006399277315003991
499.92348787276626,0.0008538675541350113,0.0005844977629535504,0.00026936979118146094
519.7556304398702,0.005898165309171882,0.0022285222454410058,0.0036696430637308763
622.1273724310267,0.0081457885819171,0.0010781451707372075,0.007067643411179893
728.3261029788024,7.092571110167838e-05,1.351516324962943e-05,5.741054785204895e-05
730.3836203041184,0.0003236463792788152,7.244008140824308e-07,0.0003229219784647328
736.1089784951968,0.000373118698101533,1.4647307474191824e-05,0.00035847139062734115
741.9990060703304,0.009937693561404953,0.00952508427259556,0.00041260928880939283
750.7227470302142,0.0008049109451792626,3.932631488849088e-05,0.0007655846302907718
780.2531889590251,0.0001647832975546986,6.509826464859893e-06,0.0001582734710898387
802.9671614155748,0.0037429771302641877,0.001589015094117908,0.0021539620361462797
821.8512203841677,0.0021262570726215367,0.0012881014072728884,0.0008381556653486483
839.6075402514384,0.012562830577729427,0.00949890781843882,0.003063922759290608
876.5315792241569,0.031009507219839194,0.026256299428660035,0.004753207791179159
887.3494582986058,0.033289464458632664,0.028472985738819113,0.0048164787198135516
908.393030161594,0.03625915565161245,0.0231957183756234,0.013063437275989053
930.0643870774167,0.001149889207310612,0.00022952851116490582,0.0009203606961457061
941.246941430855,0.002042799879175461,0.0014454211000804907,0.00059737877909497
960.7388497489404,0.00659042279168402,0.00028252803271834544,0.006307894758965675
972.9751618356786,0.011033824292264825,0.00037205024644991935,0.010661774045814905
997.9864937125998,0.003914453391638586,0.0012877874015713748,0.002626665990067211
1005.4786547481865,0.007892755903048457,0.0005136697439740318,0.0073790861590744255
1007.9778060545827,0.0019152604590042482,9.047853778290996e-05,0.0018247819212213383
1020.4956401905546,0.0024903516729825863,0.0008103339155251789,0.0016800177574574076
1043.8336897356141,0.003829437177479878,0.00326665861876515,0.0005627785587147277
1048.1523171830388,0.0011184257902062424,0.0008965032311022426,0.00022192255910399983
1051.9641035274399,0.008162531242822253,0.0010836459233634667,0.007078885319458785
1076.1364303576063,0.002881750036619887,0.0016508928470835595,0.0012308571895363275
1084.9077704089523,0.019010814293828955,0.0010714317477470926,0.017939382546081864
1086.8859690130284,0.0441400591690828,0.0008226934901981024,0.043317365678884695
1090.5013994330975,0.0332931694580214,2.8112359608010453e-07,0.03329288833442532
1091.8621509952197,0.00018049660621875533,4.837901930760248e-05,0.00013211758691115285
1097.09381762372,0.012209400653114606,0.008458383630042504,0.003751017023072103
1106.277375770217,0.06342431169760103,0.026998054659348316,0.03642625703825272
1121.0362580153244,0.022464241029382895,0.003218408002107618,0.019245833027275276
1154.3930223326774,0.19334793773122996,0.11751008657407891,0.07583785115715105
1167.2057015505795,0.042075887765359365,0.011494219088090183,0.030581668677269185
1185.719321922343,0.013076794656502274,0.007662619214729093,0.005414175441773181
1198.4535475343932,0.011457138124617065,0.0009348929700279511,0.010522245154589114
1205.9396471722932,0.01133134047433451,7.981234850186238e-07,0.01133054235084949
1223.6899203599883,0.004051433549995699,0.001190331285330419,0.00286110226466528
1226.557902277308,0.0037263723405817394,0.00016035075535107888,0.0035660215852306603
1247.5410454624584,0.002640427840377116,6.912492435496376e-07,0.0026397365911335663
1254.1188712454812,0.0032958141034709937,0.0008906561610584788,0.002405157942412515
1259.3994936306863,0.0014066419978542995,0.00011683222103318901,0.0012898097768211105
1277.0501439457973,0.0020781687327936097,0.00027087730161500255,0.0018072914311786073
1289.1625275210095,0.0030899490360985324,4.3335107838626454e-05,0.003046613928259906
1302.173703418423,0.002945204873603978,1.0897037467588987e-05,0.002934307836136389
1303.2824396471317,0.004132408322540232,0.0005267086763697961,0.003605699646170436
1315.7892423644855,0.0008705257536471336,1.424474516711766e-05,0.0008562810084800159
1324.3958423175475,0.03172317904562019,5.72424524633738e-06,0.03171745480037386
1327.2018029051005,0.07700964479700485,9.435738270129397e-06,0.07700020905873473
1329.2565416055047,0.04581604215674273,0.0030231411096878617,0.04279290104705487
1332.9296163738336,0.0010175237909955822,0.0002422439686713305,0.0007752798223242518
1334.7421665228828,0.0064955051922949165,0.0006393865069463149,0.005856118685348601
1338.5777779373916,0.0042104210992561664,7.375937453413433e-05,0.004136661724722032
1340.8182213859693,0.013951561788970737,0.0006215655200042457,0.013329996268966492
1354.2076226653119,0.0022937430572237236,0.00014751884063631026,0.0021462242165874133
1365.7823757718782,0.018555886010552154,0.0003657232507152501,0.018190162759836905
1378.6631497935525,0.0023442954368791597,7.214758557447525e-06,0.0023370806783217122
1379.8089430332573,0.027675459443506155,4.85793849320166e-05,0.027626880058574138
1399.281838968851,0.001594190837494669,0.00035490004865241213,0.0012392907888422568
1405.64013848482,0.002718142980733605,0.0006304450653881634,0.0020876979153454413
1411.8302455116511,0.0017583726813587186,0.0010138866620595646,0.000744486019299154
1414.0125516176638,0.0038956736408186777,3.247421605678339e-05,0.0038631994247618944
1418.8617186647514,0.0017693191385271525,3.149945934183782e-06,0.0017661691925929686
1420.3407412685463,0.0020178264260098475,4.99535083978491e-05,0.0019678729176119984
1421.244512014207,0.006437145605110322,3.608690732050377e-05,0.006401058697789818
1429.609979537184,0.00586293133207041,0.0009152544099292649,0.004947676922141145
1480.0924311544502,0.004432221459918682,0.0004066561132602008,0.0040255653466584815
1480.3910198177664,0.0032032531668167823,0.0005752744752970962,0.002627978691519686
1480.7589416720366,0.0007472012231950033,0.0003148323029352482,0.0004323689202597551
1483.1583956676711,0.01235151743830456,0.0022213168202984963,0.010130200618006064
1483.7740440189864,0.08780925507482515,0.004740041872039753,0.0830692132027854
1486.4511475022457,0.14177029468769425,0.009090107484013137,0.1326801872036811
1486.562442568067,0.031958450361976525,3.654422529386774e-06,0.03195479593944714
1489.774328975041,0.011639077653315254,0.0021432185479229983,0.009495859105392256
1491.590072239718,0.03444251505101627,0.0023045602589736864,0.03213795479204258
1493.7469165174273,0.02700965396459585,1.4785108718103534e-07,0.027009506113508667
1494.5927568867846,0.01406770298267805,7.680730376071162e-05,0.013990895678917339
1496.2786869263618,0.004445546348320963,1.1908335083798052e-06,0.004444355514812584
1499.829592904339,0.024195285527643558,0.0002149318195346,0.023980353708108956
1500.3999926420443,0.007015398288251285,0.0001696841838112594,0.006845714104440025
1503.9403374775031,0.001691531512816056,8.383215797449457e-06,0.0016831482970186065
1506.159514335799,0.0022419546310193657,1.346570413270417e-05,0.0022284889268866614
1506.4436801578136,0.0017534057580099079,2.591149087853408e-05,0.0017274942671313739
1520.7431381415224,0.0071377518453715535,0.0008036548767085878,0.006334096968662966
1832.187115254438,0.0943320065028233,0.03324576321531328,0.06108624328751003
3022.2483427717098,0.09222566800671536,0.08282125900011807,0.009404409006597291
3022.9844168583813,0.08139454961791742,0.07621496962366402,0.005179579994253405
3024.7357462676778,0.6773746162062371,0.6534262251342896,0.023948391071947468
3025.8064687446104,1.6839728916473087,1.657869845996731,0.026103045650577816
3026.905118137844,0.5723435824939235,0.34277507018944076,0.22956851230448272
3028.222714437451,0.9430120686366992,0.9069552913240806,0.03605677731261861
3032.8353191611254,0.01231718363383642,0.0035040565473817326,0.008813127086454688
3038.064335975572,0.2821437921235735,0.25302104745370224,0.029122744669871248
3041.392165541147,0.3419522515179575,0.31025236091240016,0.03169989060555733
3044.0980322899113,1.1049934565167705,1.6746879364734855e-07,1.1049932890479768
3045.2426359319675,0.23971485170732487,0.14351597467811034,0.09619887702921455
3046.79701399315,0.09833588099128802,0.030247350083435928,0.0680885309078521
3048.4574860614716,0.10862502008638841,0.10597836090795287,0.0026466591784355445
3050.046479778986,0.958581155238521,0.9513635146088949,0.007217640629626203
3050.324928673929,0.3391163196029778,0.17521328060341854,0.16390303899955924
3051.875870691683,1.357640071060234,1.3300495183465924,0.027590552713641643
3053.1320535718714,0.4567493103883269,0.3512081126276663,0.10554119776066054
3059.2406834358458,0.039684393030536384,0.03509524845617289,0.004589144574363499
3062.659718286308,0.3766701163051751,0.36508437818106204,0.011585738124113057
3067.20172580314,0.16022908284435486,0.004057285663397932,0.15617179718095692
3075.2806956547283,0.00898242239608082,0.002852036445497046,0.0061303859505837735
3082.604773430703,0.10269970835166296,0.004667940118841008,0.09803176823282196
3088.792466412157,0.02460056473896132,0.023381664821221875,0.0012188999177394474
3091.8563063667666,0.4049928269967168,0.3771282397421883,0.027864587254528502
3098.6095198331327,0.10304580765403884,0.00865324731826878,0.09439256033577006
3101.579430410273,0.28818043585633807,0.11138215920674827,0.1767982766495898
3111.896239540335,0.07251571231165245,0.00017753810353194702,0.0723381742081205
3112.9542871804315,0.12813699019035601,3.603985067042785e-06,0.12813338620528897
3117.4517605812653,0.49111483537763534,0.16920625343842174,0.32190858193921357
3121.303821823559,0.4108551021151631,0.063528222263978,0.3473268798511851
3121.80704624816,0.18280508373324977,0.05470412888758265,0.12810095484566714
3126.4316886000697,0.4308772495540721,0.006144830952403433,0.42473241860166866
3132.1271800092427,0.20693887334305508,0.040879685373779534,0.16605918796927555
3144.524353709883,0.1229698692210272,0.021341521426822507,0.1016283477942047
