frequency_cm1,total_intensity,isotropic_intensity,anisotropic_intensity
2.063523642742321,0.0,0.0,0.0
1.0628369547587488,0.0,0.0,0.0
0.5306176841046124,0.0,0.0,0.0
1.880237271187093e-05,0.0,0.0,0.0
6.132850528841655e-06,0.0,0.0,0.0
2.4952231135800025e-05,0.0,0.0,0.0
28.17968319908396,0.003676568713663076,1.2618079631570462e-05,0.0036639506340315057
32.01010273095876,0.002878563128913678,4.032929455614952e-05,0.0028382338343575287
36.435307746077925,0.0016605818399175395,2.3346351023358922e-05,0.0016372354888941807
39.82705278813045,0.000731202265728774,1.4486981963530936e-07,0.0007310573959091386
42.49036032329037,0.0006738685783662324,5.210521704000264e-05,0.0006217633613262298
54.12903538649639,0.0006445669588515334,5.211269242674117e-05,0.0005924542664247922
58.284275945737456,8.157455385438128e-05,2.437777668249843e-05,5.719677717188285e-05
68.71945044691755,0.0007979845821910654,0.00011419968225893352,0.0006837848999321319
80.12902516040006,0.0005455400521103492,0.0003263359093518801,0.00021920414275846908
93.94180873755234,0.0014530837165802493,1.3801348853309369e-05,0.0014392823677269399
105.8642362977299,0.0032238058112821185,0.00012148790862994308,0.0031023179026521755
112.46080731096723,0.0016942872976713234,3.710636246926624e-08,0.0016942501913088542
127.95313788000188,0.0033509481553023386,0.0017276765072408162,0.0016232716480615223
129.7952597875109,0.0023192795104391185,0.0007048618970102081,0.0016144176134289105
139.54532702769185,0.0008293385577290676,0.0001453202665552477,0.0006840182911738199
147.54905221005947,0.001070171576483097,0.0005805544982688664,0.0004896170782142305
161.72347336916928,0.0022627055979134027,1.0071584675280383e-05,0.0022526340132381223
184.90361234451612,0.0021616357159307477,0.0018453000397050676,0.00031633567622568016
196.57293329192134,0.0012360312107795293,0.0004547651424581419,0.0007812660683213875
210.2789078972443,0.0010089699961625342,0.0005729369953654778,0.0004360330007970563
216.79439991130621,0.000862603511495605,0.0003882900052424388,0.00047431350625316615
228.87790732335912,0.006696723741902621,0.005464351580385481,0.00123237216151714
247.45089083754425,0.004231148706300428,0.0022399834260267938,0.001991165280273634
271.4644408773043,0.007815578352923713,0.005975768913590461,0.0018398094393332512
307.36948657459925,0.0011697991021367348,0.00044620901473935474,0.0007235900873973802
328.1619286271515,0.004657641719811562,0.003871568571654485,0.0007860731481570761
348.10169904129367,0.0024531066923900967,0.00041977426767894047,0.002033332424711156
353.28954203272355,0.011044604270162718,0.009786265047857703,0.0012583392223050154
362.39378271078334,0.002722964565385891,0.000636015139801429,0.002086949425584462
389.4219857999528,0.003829012712757884,0.00020601053764273726,0.003623002175115147
432.2592248138686,0.001728087950629233,0.0005235082063831468,0.001204579744246086
450.1949986983397,0.005923351339286119,6.283941196816631e-05,0.005860511927317952
461.60016804392876,0.005064333943325835,0.0016638596247485434,0.003400474318577292
467.3116086847325,0.0026348551537069146,0.0015217697651445602,0.0011130853885623544
569.0496521932921,0.01854998989804453,0.016008297622735198,0.002541692275309333
574.8852291037932,0.003948861484619607,0.00027963088993802464,0.0036692305946815825
622.582487203482,0.001649040917317733,0.0002801354216724684,0.0013689054956452645
696.3550368073373,0.0009455752155150759,7.890696661040807e-05,0.0008666682489046678
709.7779779203429,0.0011671879741553771,0.00010257597170186761,0.0010646120024535096
740.755711708219,0.004145721807631536,0.00013532963953334122,0.004010392168098195
774.8996226011482,0.00739705366328291,0.0036754289822333555,0.0037216246810495546
786.2434219496397,0.01771416565522517,0.013430228303969338,0.004283937351255833
791.828794235174,0.006534246610148181,0.001851115444085167,0.004683131166063014
803.6807847445192,0.00818368410120893,0.0020636484601676275,0.006120035641041304
819.4030371854475,0.003085959650764569,0.0014398712445329895,0.0016460884062315796
842.8999996966303,0.005864020457493091,0.002850069657456049,0.0030139508000370423
855.1780023268882,0.009304781176136182,0.002780353850705512,0.00652442732543067
879.7689018259332,0.05208583587822272,0.04379559136131542,0.008290244516907302
883.6367364335949,0.020354494238084154,0.018697735882874426,0.0016567583552097264
894.4963588452437,0.07807755244870247,0.0546590199910386,0.02341853245766387
910.571238157147,0.013285179874956782,0.0027175939887551944,0.010567585886201587
913.2130834627162,0.013937949727107851,0.006936699484051092,0.007001250243056759
961.7465994879693,0.01575811065800858,0.009385442251027755,0.0063726684069808255
989.4205071290257,0.013767897227443659,0.0019774120744423295,0.01179048515300133
1022.3001047664247,0.04167113722406966,0.007748419257522291,0.033922717966547375
1044.816912446648,0.006068487728966749,0.0024796165248030548,0.0035888712041636946
1063.875964601415,0.026095906299499757,0.0004154637910859051,0.02568044250841385
1071.0390103642528,0.015618190594640827,0.0035524257351600575,0.01206576485948077
1078.723748182582,0.013634606206574931,0.003952282175244005,0.009682324031330927
1119.4211311969539,0.03040696987179653,0.027393348243510588,0.0030136216282859434
1122.8314230173087,0.008007692672820565,0.0017742827885570583,0.0062334098842635076
1123.3317668197524,0.038478433883981825,0.03307221591201455,0.005406217971967274
1124.5369931847547,0.019172810634436342,0.01323460589379145,0.005938204740644893
1133.4460060517156,0.018871832439370684,0.012773341547433207,0.006098490891937477
1184.3852046384714,0.00996124319015865,0.0015176700797011396,0.00844357311045751
1194.6465587124437,0.008054417878782293,0.002207985604343611,0.005846432274438682
1196.9862682649384,0.0023928337952224743,0.0003725258236466006,0.002020307971575874
1199.1330727999787,0.0029322281524573283,0.00018207095215478915,0.0027501572003025393
1206.6916124741633,0.0025179386348083985,0.00037512592833465277,0.002142812706473746
1220.2196196351003,0.006618940971018709,0.0002550110444994268,0.006363929926519282
1250.8681317683008,0.008394195279576997,0.0003366974196873411,0.008057497859889656
1281.1300602210354,0.006957626285618131,0.0024915940752441284,0.004466032210374003
1307.1018029583095,0.009066399743641394,0.0022381089183003766,0.0068282908253410185
1324.458793225543,0.026175746308288932,0.0004736641603040238,0.02570208214798491
1330.320561496642,0.02812299379882011,0.0004006884357295908,0.02772230536309052
1331.6451683942787,0.0034081511354405684,6.787297117190898e-05,0.0033402781642686593
1335.0399545717557,0.018580188788858244,2.9950929247674362e-05,0.01855023785961057
1341.1038211355442,0.01180238164904048,7.87202752576276e-05,0.011723661373782852
1375.4047786696271,0.007792352554228997,0.005423085616185897,0.0023692669380431
1381.0754227694913,0.004169991238578048,0.000684629380273361,0.003485361858304686
1399.9219336589927,0.004051481602019496,0.0026787180347710464,0.001372763567248449
1400.8229959193118,0.0019670590497460764,0.0006693086972210692,0.0012977503525250073
1406.9813697069883,0.00724897516209177,0.0050689460326819435,0.002180029129409826
1410.8457194658129,0.009418871194710538,0.0030249174365843986,0.006393953758126139
1424.8585009964345,0.001971115758621252,1.4477359773143249e-05,0.0019566383988481087
1426.577541818513,0.002075344718109003,0.00011700403282236758,0.0019583406852866354
1430.91734275999,0.004849379741815854,0.0016603183354081754,0.003189061406407679
1432.6983940566734,0.0020102054792479353,9.858510151354348e-06,0.002000346969096581
1479.7716053481006,0.0351329241122421,0.00020479204853310156,0.034928132063709
1480.1492895487654,0.015219038642643762,3.752360048854511e-05,0.015181515042155216
1482.2869604461544,0.031638386038716396,0.0010387199733444946,0.0305996660653719
1483.2905248187092,0.04089731930753353,0.00034240012231947966,0.04055491918521405
1489.9310514748609,0.05783662791403322,0.001950087905209429,0.05588654000882379
1490.4347394967579,0.03371186728130397,0.00018679264113991077,0.03352507464016406
1491.1933640482903,0.03623075808994849,0.006163026786927902,0.030067731303020588
1494.4240877136397,0.03731574565561448,0.004393857890403172,0.03292188776521131
1502.51799047446,0.003715597460787235,0.001330414939591365,0.00238518252119587
1504.521891208881,0.004205986863009201,0.0010876939505467236,0.0031182929124624766
1507.2774262179917,0.005134976227849888,2.2969335196927333e-05,0.005112006892652961
1507.8442233901528,0.007229023057077583,0.0017820418579951199,0.005446981199082463
1810.0430451280624,0.01275958083324058,0.0004611373966921614,0.012298443436548418
1825.0146887247922,0.018155389353841752,0.011561674060870473,0.00659371529297128
1828.5248877090237,0.023868064195153617,0.018897583555605283,0.004970480639548332
1840.7307564241107,0.08667595200698787,0.07907112207141896,0.00760482993556891
3066.738357586444,0.8631296230808011,0.7926914816138277,0.0704381414669734
3069.2425829277636,0.2862150010989636,0.2169437856039901,0.06927121549497345
3069.372497739212,0.7356473972994789,0.6724673930785796,0.06318000422089934
3069.6094060902155,1.7464964869816824,1.6912452675188194,0.055251219462862905
3107.485417030431,0.05204445001010732,0.01711744371527569,0.03492700629483163
3107.6193266165087,1.1107607556465724,0.9231077652745711,0.18765299037200123
3107.8771334953676,0.7333393845295753,0.6459497354094387,0.08738964912013655
3109.813726679641,0.5251948153526454,0.4336516707650756,0.09154314458756982
3123.9780873170334,0.0955994435088845,0.0018464285607884278,0.09375301494809607
3129.0317331711135,0.3733796955601975,0.3362306355186891,0.03714906004150844
3134.87249686945,0.25552739451003353,0.027299879301181332,0.22822751520885218
3135.0040455461003,0.5080448249065069,0.11163124993776795,0.39641357496873897
3135.458108976189,0.35378074296114054,0.08359156119929563,0.2701891817618449
3138.4938268173446,0.36928128736821486,0.08939729216663787,0.279883995201577
3145.9248267086027,0.25510268415045145,0.0023881604093358754,0.2527145237411156
3146.0135459641224,0.36740617267110315,0.00040585349262630137,0.36700031917847686
3148.4159595473925,0.2911886153446435,0.00081602657974092,0.2903725887649026
3148.942174246521,0.2755864626119499,0.0005671787929666584,0.2750192838189833
3167.4284546963554,0.1358766516687909,0.04560163202609091,0.09027501964269999
3167.542883633247,0.07900678812181341,0.008168877544716109,0.0708379105770973
3167.688175084693,0.08098583535276507,0.029167941096215608,0.051817894256549465
3169.907483712671,0.06584967005562707,0.01415518986971582,0.05169448018591125
