frequency_cm1,total_intensity,isotropic_intensity,anisotropic_intensity
1.7508396670202835,0.0,0.0,0.0
0.8148122262089658,0.0,0.0,0.0
2.318851168790753e-05,0.0,0.0,0.0
1.9867088624688336e-05,0.0,0.0,0.0
3.1170884060566596e-05,0.0,0.0,0.0
0.7400307881630808,0.0,0.0,0.0
4.391102405277669,0.0,0.0,0.0
7.410718343426185,0.0013453017095588756,2.1890925948109493e-05,0.001323410783610766
10.508021214597417,0.00376154110347286,3.0982840288128605e-07,0.0037612312750699784
22.00144866555315,0.0005424138281723397,5.206723283143245e-06,0.0005372071048891964
29.552980091000883,0.0011497102855440463,0.00011700616747694102,0.0010327041180671053
38.442676721574614,0.0006477238430044186,9.710684687328748e-07,0.0006467527745356857
43.33190409785823,0.0016775901399225658,5.0433670735525985e-06,0.001672546772849013
45.2857271632202,0.00032749082840717684,3.662672799851973e-06,0.00032382815560732484
49.948522609385705,0.0015743030582730916,0.0001811236621406102,0.0013931793961324814
71.48821040697024,0.0005417216586485394,5.160520054455607e-07,0.0005412056066430938
86.96912666318735,0.0005421537715598794,1.7512579066473724e-05,0.0005246411924934057
90.03096991902814,0.00039733347175712483,2.379255022510003e-05,0.0003735409215320248
99.29963334826282,5.283492113529197e-05,7.130203200442068e-07,5.212190081524776e-05
105.6945376322785,0.0002492232037896664,2.985943810081903e-05,0.0002193637656888474
113.66584483051771,0.0007574088559097928,0.00019231786988413899,0.0005650909860256538
117.77944627866512,0.00030454486032508636,0.00018589758592263924,0.00011864727440244714
123.72328320637322,0.0001990486769639028,6.332527239232149e-07,0.0001984154242399796
133.50613378837568,8.113146326320222e-05,1.0868603912888869e-05,7.026285935031335e-05
136.53209626417708,0.0005949553688749667,0.0002421751887560752,0.0003527801801188915
146.45702620509238,0.00026433718474136274,0.0001366746477551065,0.00012766253698625623
152.69031327105097,0.00025309002395353553,0.0001437840201213906,0.00010930600383214494
179.82974165865744,0.0006364065877228191,0.00020565417475588193,0.0004307524129669372
189.5073766970588,0.0004990743430388,0.00030418776081971504,0.00019488658221908495
200.79794839509785,0.0042983176004532005,0.0030363956317417166,0.0012619219687114843
231.47655341621476,0.0033562640432555765,0.0026587784282928384,0.000697485614962738
245.13933380986938,0.00099837815744271,0.0009171075260542083,8.127063138850162e-05
245.34412102985362,0.00027422125685215175,0.0001789755885125262,9.524566833962556e-05
248.16672486262368,0.012185765667961736,0.011534634958400852,0.0006511307095608838
255.0308858823952,0.0023488567649091285,0.0015489149507170491,0.0007999418141920794
263.0600934939065,0.0018026836253187118,1.868622051263866e-05,0.001783997404806073
268.81367000360586,0.008199699002788493,0.005776745041261035,0.0024229539615274573
300.83366044914203,0.0013342352689318083,8.210258525516391e-06,0.001326025010406292
329.7481633833776,0.004087506462365611,0.00027236274431874065,0.0038151437180468707
343.59917033119984,0.01169456218280365,0.009485453642133738,0.002209108540669911
358.1485153905916,0.004363376579646401,0.0032531087197323004,0.0011102678599141007
404.81905256152316,0.0032723756121372264,0.0002317980063287745,0.003040577605808452
413.3899326401006,0.005181476200560806,0.0041665507215258,0.001014925479035006
417.29279915319887,0.006735267756370739,0.0022937053709027834,0.004441562385467956
456.16301528705833,0.0029999625510415805,0.0018408740944100112,0.0011590884566315693
489.34039756067864,0.005863655358723857,0.0009687232725914416,0.004894932086132415
515.8213270301533,0.002641864156538565,0.0007012977140170765,0.0019405664425214885
530.1301156621341,0.0011793808704434435,0.0001585164720905637,0.0010208643983528798
537.52094894138,0.009700065133839576,0.006130558155795012,0.0035695069780445634
719.5839678795145,0.0021104192460641687,0.00043612555974823533,0.0016742936863159334
722.4416445575894,0.002517077874135783,4.366367062688746e-05,0.0024734142035088952
727.9147544113957,0.0009972524235123252,6.109705526516004e-05,0.0009361553682471651
729.6783315074148,0.0005346653943504914,0.0003522492485918494,0.00018241614575864194
735.2210240891114,0.0011892837888087416,0.00012750047762215695,0.0010617833111865847
741.6302051644259,0.0016275824043498147,0.0001407743284484235,0.0014868080759013913
748.4917839078307,0.0022895041300470993,1.9031842105091972e-05,0.0022704722879420074
762.7058545367482,0.0025256541045283807,0.00016001564635255024,0.0023656384581758304
772.5325188932447,0.0027459027849081946,1.5122379360441671e-05,0.002730780405547753
799.4273022684572,0.0026865098888969865,0.00030865419094211683,0.0023778556979548696
815.3147856687124,0.004414758897846482,0.0002821491133721173,0.004132609784474365
838.4894303358427,0.006463989244101572,0.00363094109203391,0.0028330481520676618
858.7473061959636,0.005256820958809092,1.3027037693051818e-06,0.005255518255039787
871.281843639119,0.013760491421601642,0.00839970824854589,0.005360783173055753
878.5962913994507,0.008732033479977369,0.0011716943765114976,0.007560339103465871
888.0777177322414,0.0037333741411950064,0.0006685886334092967,0.0030647855077857097
904.6572846628626,0.03575566819269222,0.023932642928834406,0.011823025263857815
908.2017304009862,0.021063840505218145,0.0030636289585001283,0.018000211546718017
917.0909547127802,0.05407077239061231,0.046403331794447084,0.007667440596165227
920.8608683567355,0.06457666757995915,0.06020624329292633,0.004370424287032829
939.8712763713183,0.02959137581716988,0.01383639685093848,0.0157549789662314
962.2280235256364,0.012481870400806642,0.0009887869308802936,0.011493083469926349
966.605573627173,0.06044207386956328,0.04929117136102335,0.011150902508539933
990.2008038937078,0.00466249997500507,0.0003906887149816746,0.0042718112600233955
997.7312116427083,0.0035871113504094485,7.658730424837346e-05,0.003510524046161075
1022.6509844606207,0.007998670809814498,0.001991967921606995,0.006006702888207503
1028.472707072824,0.005432906446953434,0.0008305823758991399,0.004602324071054294
1030.7237274053577,0.010714807951869689,0.0002726722680406224,0.010442135683829066
1036.4002026305627,0.027067298959633043,0.02258159699671622,0.004485701962916824
1047.8404425252568,0.007918590488913184,0.00033865853952079684,0.0075799319493923874
1049.639986925981,0.014973023282405127,0.005118595300446149,0.009854427981958978
1055.3597157693562,0.009978129303535392,0.00035498806837398566,0.009623141235161406
1072.2012518686324,0.01775912457417831,0.0002527650697604942,0.017506359504417816
1075.945592015321,0.007673728603121243,0.005420291859319189,0.0022534367438020535
1084.0259293644838,0.03687491337746466,0.009523173100964902,0.027351740276499757
1089.4193066085977,0.0184511886750433,0.001935990195211852,0.016515198479831447
1090.4515388453165,0.029001848691876848,0.0007415055703631669,0.02826034312151368
1093.2056233983324,0.013686969996436253,1.597783055498639e-05,0.013670992165881267
1106.338958849094,0.03517884674995808,0.00018849535369776962,0.03499035139626031
1106.6707011769372,0.027523054447609767,0.00032886560860400624,0.027194188839005762
1115.2028000681391,0.028365967793081388,0.005642905128241746,0.02272306266483964
1119.8488440420704,0.02003159470311044,0.0019177418842585901,0.01811385281885185
1120.558517726851,0.012973528786266515,0.0013046021650030333,0.011668926621263481
1124.8614138583746,0.0269189720211817,0.008725561539815399,0.018193410481366305
1136.72954153401,0.02990832336172002,0.021955514679753027,0.007952808681966992
1162.108471206031,0.006499995260280121,0.00022621484229010068,0.006273780417990021
1166.3278953560477,0.004286241516225989,0.0007714220521569862,0.003514819464069002
1174.2189448783672,0.061035762525787005,0.024714023655984105,0.0363217388698029
1200.6063749659884,0.01903690352721901,0.008400025894433654,0.010636877632785355
1209.6917029996825,0.026617862983695447,0.013470029725033122,0.013147833258662325
1219.135200368366,0.009819099964675466,0.002887910082192591,0.006931189882482876
1231.0652211428892,0.00403827072073488,0.00110369327965467,0.0029345774410802095
1247.1597321129489,0.00918185337344321,0.003986698548481069,0.005195154824962141
1255.3870819715387,0.005192372369660657,0.002419531003742942,0.002772841365917715
1262.2061791115036,0.0038711903793851588,0.0010635953580231715,0.0028075950213619872
1266.7497892285119,0.0018519475011022164,0.00025494610677227677,0.0015970013943299396
1271.5853060153813,0.003597392306619302,8.853650500607606e-06,0.0035885386561186946
1282.365770317725,0.005017994517815022,0.0012032434047677789,0.0038147511130472433
1287.3489839251333,0.0063661952125711055,4.0517492402202805e-05,0.006325677720168903
1295.2684741332253,0.0010972955046827534,0.0009382926653254918,0.00015900283935726142
1300.143410956996,0.012974057720994728,0.007855987506125208,0.00511807021486952
1307.1107298959103,0.026237637958105634,0.003603936661876937,0.022633701296228697
1313.1037059579046,0.003286453138675447,0.0014239638552437982,0.0018624892834316485
1317.4912947043517,0.007085205190260999,0.00023130459174432947,0.006853900598516669
1320.8794016853203,0.0019052455105499579,0.00040861877475732716,0.0014966267357926306
1328.0264701799733,0.013924957895004825,2.0468633285990303e-05,0.013904489261718835
1329.3201091286637,0.01493165212437613,6.18867949018745e-05,0.014869765329474255
1331.1921695435049,0.03456164717921681,0.00017308935569651323,0.034388557823520294
1332.550484285066,0.0374396455592692,0.00043046349256174916,0.037009182066707454
1332.9257115745895,0.011982281831850237,4.323953642499995e-05,0.011939042295425237
1334.5693622151387,0.04805744709604483,1.4608295226305454e-07,0.048057301013092565
1336.1081690778212,0.09874736443501954,0.0029610508738839476,0.0957863135611356
1336.9974029841972,0.040939585606202984,0.0006452834538268368,0.04029430215237615
1342.0683869450538,0.03541612190878141,3.749992778633528e-05,0.035378621980995076
1350.4897851677524,0.032625601740993625,0.001256288685374879,0.03136931305561875
1355.2628571760995,0.008067202764573973,3.483591646802058e-05,0.008032366848105953
1371.3908911976864,0.002958051200996305,0.00022996158026968413,0.0027280896207266207
1383.8391720147258,0.004579406717281431,0.0006623808518197683,0.003917025865461663
1387.7415634255476,0.004482868815045758,0.0005603592768420954,0.003922509538203663
1391.4165346234704,0.002229751519940651,6.569098188884912e-05,0.002164060538051802
1392.6159841835238,0.0046284097128593375,1.9349067592646124e-05,0.0046090606452666915
1398.5165712486066,0.0010342509053268768,8.183404456213099e-05,0.0009524168607647459
1405.586463777007,0.0009372076871769925,2.7071128557389724e-07,0.0009369369758914186
1409.112387858761,0.00151929346254423,5.771490799682418e-05,0.0014615785545474059
1412.829410957786,0.0012918303856996696,0.0008064875235420155,0.000485342862157654
1413.1838249679818,0.0014474146153835201,0.0010227613567111613,0.00042465325867235886
1415.9484966942957,0.002981945395841238,0.00010385334030206292,0.002878092055539175
1417.226333688821,0.008351899426865114,1.2621606260038897e-05,0.008339277820605074
1418.1609241327676,0.008362827700032858,0.00044407511911177415,0.007918752580921083
1419.2101668035898,0.009045174441346535,0.0006418433134874151,0.00840333112785912
1419.8979355313063,0.010878160014876211,7.084770770577767e-07,0.010877451537799154
1478.347278601933,0.03855110759811892,0.0001406754808278255,0.03841043211729109
1478.6169899041968,0.04154173431614423,0.002075972839604018,0.03946576147654021
1479.9440717313896,0.006184972434255624,2.1446593068596702e-05,0.006163525841187028
1480.4267113177848,0.008262453393733984,3.4333799021508815e-07,0.008262110055743769
1481.0405046096473,0.06338510604786714,0.0007394403935631568,0.06264566565430398
1481.9362674236393,0.02657701317833698,0.0014388168957508254,0.025138196282586154
1482.5535819356915,0.12333174466383205,0.003983121049207432,0.11934862361462462
1483.4455897024425,0.03415747733273757,0.0005193040093379105,0.03363817332339966
1483.9089204054408,0.01265076096127936,0.00019744194186294858,0.012453319019416412
1486.2489752749752,0.02232641153903896,0.0007122418155682589,0.021614169723470703
1488.7165603618755,0.0531395523078619,0.0010872688428063325,0.05205228346505557
1488.7378727647101,0.029853599030446494,0.0013887372670743261,0.02846486176337217
1490.776958133926,0.0114233587949054,0.0006089564143917502,0.010814402380513649
1491.0511601836345,0.032241784354504914,2.108312189843384e-06,0.03223967604231507
1493.7211042947374,0.02717946420038168,1.1941491789751878e-05,0.027167522708591928
1493.7761552726677,0.011834170113730955,0.0004506807974969816,0.011383489316233973
1493.7992420646333,0.027732333204274796,1.2325139348726497e-05,0.02772000806492607
1494.4681651984613,0.002813116003639977,7.137791375075973e-06,0.0028059782122649007
1497.7155025579566,0.004468316391270641,2.827784029306514e-05,0.0044400385509775755
1499.8767241615888,0.006080529124830943,6.223437506740952e-05,0.006018294749763533
1500.844394212737,0.005012638775763978,3.0649466125491907e-07,0.005012332281102723
1503.6070913592823,0.005272739323853317,1.8137579650951162e-05,0.005254601744202366
1504.9687307750723,0.004635388066890234,3.343660664605428e-06,0.004632044406225628
1505.7577584534415,0.0037342581055195114,2.926794945017936e-05,0.003704990156069332
1507.1597179493444,0.0019448894860172137,2.6472471722136023e-05,0.0019184170142950777
3022.705730207496,0.6631010585833641,0.6410106519852543,0.02209040659810977
3022.987376357672,0.1370168885188876,0.07282263531698172,0.06419425320190589
3024.4486914348345,0.6317497584769141,0.5747563024310725,0.05699345604584162
3024.6302786609417,0.30602471555278793,0.2388351935620874,0.06718952199070051
3024.9495540159996,0.030901556662190247,0.0009052786827782371,0.02999627797941201
3025.851471062027,1.4751223679046546,1.276850057330368,0.19827231057428657
3026.9480946550843,0.4046477088751155,0.3666823025988311,0.037965406276284384
3029.3830311477195,1.2871705556111184,1.1267569648711455,0.16041359073997277
3030.60625516643,0.4647686935640001,0.3912753358089144,0.07349335775508567
3031.653951957298,0.026247225597650706,0.0020831407674501484,0.024164084830200556
3032.9880400478696,0.10356463542131243,0.00012651356200720377,0.10343812185930523
3034.041001790369,0.2595787233446095,0.08449013602147416,0.17508858732313537
3034.2073235835105,0.21928986957269087,0.1483207168354221,0.07096915273726875
3036.422959987292,0.37888911713839923,0.2140608663585802,0.16482825077981905
3038.4182566862473,0.5914955652077817,0.5496117164376233,0.04188384877015837
3040.154017050285,0.2106389315070657,0.18568997275772373,0.024948958749341974
3040.8226005013785,0.30665440185147746,0.2554911450218206,0.0511632568296569
3043.794474813644,0.4898285476822673,0.046169396993593785,0.4436591506886735
3045.5703297604973,0.09179402968339623,0.03465425832077602,0.05713977136262021
3046.1614333516113,0.5279951677559755,0.04304908708948814,0.4849460806664874
3047.0229378438,1.1850713932294465,1.101663497801294,0.08340789542815243
3047.8673218826493,1.6717300910846733,1.6619024570023226,0.009827634082350706
3049.8064303176225,1.1246656343580168,1.0884958640698137,0.036169770288203056
3050.0516080746324,0.911609388366537,0.9020671348822772,0.00954225348425991
3050.466372368632,0.5721544873013298,0.05029387970742132,0.5218606075939085
3056.1167399889323,0.5931412252667956,0.1602925626583103,0.4328486626084853
3056.909918242472,0.41124824014459005,0.35986388914455136,0.051384351000038714
3057.8556028155385,0.4976208126465691,0.04865145905684429,0.4489693535897248
3061.9733602627794,0.4644450915078141,0.3165883628283483,0.14785672867946578
3062.636795091912,0.09440781192865107,0.0008861283195872424,0.09352168360906382
3065.2048174920797,1.1987625729096483,0.6211596033751189,0.5776029695345294
3065.3962305166065,0.39587409474609314,0.0020832763911043527,0.3937908183549888
3067.5914380398203,0.15572021361610744,0.12356597910875433,0.032154234507353115
3069.556347076663,0.12439957397458437,0.009268527156728055,0.11513104681785631
3074.4724736364524,0.13794759534087528,0.008636493212993725,0.12931110212788155
3075.947321636165,0.05652308819179497,0.0038542536540738877,0.05266883453772108
3078.0355452581034,0.029149397853113043,0.01142433038940139,0.017725067463711653
3081.927192039141,0.10683813929609562,0.0010147522986100957,0.10582338699748553
3083.135585000082,0.08344189636969922,0.0010307146871072893,0.08241118168259193
3089.798262431752,0.03812316902710585,6.683125017414155e-05,0.03805633777693171
3090.2825576809814,0.0727349263922398,0.0016801701205766896,0.0710547562716631
3091.634983422346,0.013446814764628865,0.00014755534631537845,0.013299259418313487
3094.6918213071986,0.011685583278692086,0.0031898254438261697,0.008495757834865916
3100.3050770109676,0.054081415030066096,0.0044071905506970896,0.049674224479369006
3112.8048943469794,0.1333264966302829,0.00012772587319866512,0.13319877075708422
3113.028447633268,0.12407302116972331,0.00011745597311241758,0.1239555651966109
3121.0325706430685,0.39769949855118303,0.0572549380284448,0.34044456052273825
3121.0437918207062,0.4101770531562551,0.06255992850807246,0.3476171246481826
