frequency_cm1,total_intensity,isotropic_intensity,anisotropic_intensity
4.785629136115696,0.0,0.0,0.0
2.9044479203133455e-05,0.0,0.0,0.0
1.939430962314843e-05,0.0,0.0,0.0
4.639955994085263e-06,0.0,0.0,0.0
0.6009807010674612,0.0,0.0,0.0
0.8682168701805707,0.0,0.0,0.0
16.682821991275247,0.001243151113913753,5.710926840310702e-07,0.001242580021229722
24.807350937636837,0.0003348806027514421,1.568014745698496e-10,0.0003348804459499675
53.675224161633444,0.0006045633484464766,4.0847143430499584e-05,0.000563716205015977
56.768901782388475,0.00026264973638108404,9.311843336565317e-06,0.0002533378930445187
80.49482789910833,0.0008560054924422844,2.16866260905283e-08,0.0008559838058161939
122.2660869343293,0.0034311720594708663,2.0281664131144092e-07,0.003430969242829555
128.70037043776915,0.00016381052472095347,1.7630910115103177e-08,0.00016379289381083836
143.37764665477198,0.0011220890208891272,0.0007780982763076559,0.00034399074458147126
151.88865424222132,8.671533254289475e-05,2.671193634280172e-05,6.000339620009303e-05
196.67638333311479,0.013206201433095512,0.009665514194654298,0.0035406872384412128
233.82095669588767,8.03320815442811e-05,1.1649862626687285e-05,6.868221891759381e-05
241.3240110178668,0.002143412103246591,0.0015947155951053689,0.0005486965081412221
245.72680224775235,2.033644034964041e-05,2.769853257750208e-06,1.7566587091890203e-05
247.78400484238037,0.0034635322395552507,0.0020268563762311635,0.0014366758633240872
312.06694046015883,0.002384734448718958,0.0006579609962891064,0.0017267734524298519
352.64666311046807,0.001328747677734774,2.7495918775147804e-06,0.0013259980858572593
373.3319147790189,0.005145510005583786,0.002748414576181242,0.0023970954294025436
418.2860231397729,0.0051933009738003855,0.0005480299585957234,0.0046452710152046625
457.3064684018075,0.0003720133626100076,0.00011235064366438764,0.00025966271894561996
461.0965313183443,0.0005625118240657289,1.2008894538126933e-05,0.0005505029295276019
496.96006884903903,0.005255850656403622,0.0028958849304116757,0.002359965725991946
711.5898960408833,0.006028153151268718,1.755951594519979e-05,0.006010593635323518
715.9364376507361,0.00029316638057945015,3.62765396886314e-05,0.00025688984089081873
732.577748777954,0.00011578423381684387,2.6629214320928447e-06,0.00011312131238475103
769.7436398059928,0.00024619924872756215,6.18673606321277e-05,0.00018433188809543444
806.596990503597,0.07329827400195366,0.06828388798667566,0.005014386015277997
843.8237660739617,0.00032715191455079965,1.1724916706456926e-05,0.00031542699784434274
879.2553527563521,0.01934342183220759,0.010473799549998249,0.008869622282209342
909.2333049724151,0.038083408882092565,0.02005789346727803,0.01802551541481454
909.999590097483,0.003302526746583055,0.001259663381736449,0.0020428633648466063
936.406509377609,0.0008742114211974294,1.0232265686207257e-06,0.0008731881946288087
975.9292624027514,0.014301202925768157,0.011100243073540813,0.0032009598522273436
978.3893475490975,0.009871986286064954,6.136821633235993e-05,0.009810618069732595
996.96455252385,0.002267641805591854,9.030676990094911e-07,0.0022667387378928444
1033.9286144273512,0.01777676430061883,0.0021198110737573788,0.01565695322686145
1047.3460003528576,0.0218680538426523,0.010106077700879344,0.011761976141772957
1078.457211276223,0.013822352002842288,0.00017492396399351168,0.013647428038848776
1080.3642680995995,0.008082042880207183,0.003956251887335993,0.004125790992871189
1086.0333269205303,0.001812882308430938,0.0002449638698351016,0.0015679184385958365
1092.8491749843781,0.04796828036794576,0.0022560920752017796,0.04571218829274398
1127.3361686285962,0.01061603040004487,0.005159143768109108,0.0054568866319357635
1154.1106932269997,0.09689963481814196,0.06474140695458878,0.032158227863553164
1161.4444531446056,0.015309347521659203,7.053026786619504e-05,0.015238817253793007
1215.3793910190298,0.01465516223994466,0.003391631737730553,0.011263530502214108
1218.2907070429937,0.0029361322256765895,8.687269416675669e-06,0.0029274449562599137
1255.5379054232012,0.003911188301572487,2.304434842370113e-05,0.0038881439531487857
1256.5228538398076,0.014956295349850856,1.2150939352629204e-06,0.014955080255915593
1283.6865918864114,0.008013321264175222,1.2325099215731608e-09,0.0080133200316653
1316.0596188147779,0.0014406546166330259,0.00010338346931940404,0.001337271147313622
1319.6776121525934,0.00943551343136578,9.739474947126068e-06,0.009425773956418653
1330.7751355441812,0.035598143369261266,1.004697076143932e-06,0.03559713867218512
1335.4085773348893,0.010532606676367627,5.372173985774329e-06,0.010527234502381853
1353.7822025095347,0.019187106697624773,0.008835105743272866,0.010352000954351907
1367.4189924020345,0.012303189798733025,7.329318037343101e-06,0.012295860480695682
1372.7682732360763,0.008966516375844164,1.745203401290662e-07,0.008966341855504035
1397.0606007267427,0.004745271976261343,0.00019660883046566252,0.004548663145795681
1401.5530740603544,0.002904699091910719,1.2378619168290351e-06,0.00290346122999389
1409.6464983577098,0.001223035344627344,0.0007450735539760797,0.00047796179065126435
1413.6733685925806,0.0005785701691166807,0.0002483919622247305,0.00033017820689195017
1418.4929718237915,0.003014314831992352,0.0004271875326336077,0.0025871272993587442
1421.76634627163,0.006393304732186278,0.0002962069902675848,0.006097097741918692
1441.0286568289675,0.010016910692094151,0.0005908565695840869,0.009426054122510064
1454.1873405746067,0.0347855246724911,1.981780979586478e-06,0.03478354289151152
1480.7178687666042,0.04530553531583364,4.7585122767648357e-07,0.04530505946460596
1482.6480155772333,0.07871024005921574,0.0026891644940237854,0.07602107556519196
1483.322356677743,0.0024073929973775486,2.809252557176086e-06,0.0024045837448203725
1490.0565195731997,0.034733375707110103,0.0013636051676543684,0.03336977053945574
1493.7680429851903,0.02736784056370446,3.254922292357966e-08,0.027367808014481534
1497.4791681962513,0.01101274752236618,0.00033888191624956957,0.01067386560611661
1499.1367762898283,0.002211263027504091,0.00039762852091724166,0.001813634506586849
1499.6040341507844,0.0015045971728727162,3.011227077151257e-08,0.0015045670606019447
1505.5313333846243,0.0024168131675804615,4.593433956364581e-06,0.002412219733624097
1515.7584448228858,0.018069391530936434,5.142294774800661e-06,0.018064249236161633
1811.11543513291,0.028315921208125795,0.014674454944430645,0.01364146626369515
3021.5220029666243,0.6505952495916282,0.6173603523632218,0.03323489722840636
3025.070510910959,0.11903337171147098,0.0011915068607566935,0.11784186485071428
3028.567616669348,0.37160198333534916,0.3366508875033577,0.03495109583199146
3034.988099842631,0.33630826974203004,0.22739114982914013,0.10891711991288992
3039.812360709694,0.3075674912244556,0.1701608465709585,0.13740664465349708
3040.144059448452,1.1386717360115188,1.086850950542239,0.0518207854692798
3046.044554566878,0.6233021811927116,9.817552600791607e-07,0.6233011994374515
3050.8274983374504,0.8829998062565302,0.8751678077696506,0.007831998486879516
3052.4610165081676,0.030492414761326178,0.002939734434060289,0.02755268032726589
3056.593293093477,2.104341057513766,2.0847042737407175,0.019636783773048377
3059.1327400587866,0.025350165658260596,0.0048591928760352435,0.020490972782225354
3061.074492633515,0.02888337102295594,0.013784374609716543,0.015098996413239396
3063.2673811486275,0.2316270386491807,0.21681535136058014,0.01481168728860056
3067.875205573634,0.4696323734467967,0.0013632360293328969,0.4682691374174638
3081.1046867888604,0.06726340881811259,3.501513928144344e-05,0.06722839367883114
3105.8754435507494,0.017605735646923706,0.000365643585657268,0.01724009206126644
3112.5836588775337,0.12574335434347025,4.004963995925469e-05,0.125703304703511
3114.0134104629715,0.1403594605619557,6.269317452761631e-05,0.14029676738742808
3115.0637330742707,0.5760410888343905,0.07111022374165392,0.5049308650927367
3122.0529258209485,0.4155528611289543,0.06249225359247225,0.35306060753648205
3143.5593144743584,0.06493044071110958,0.00011416531492614769,0.06481627539618343
3146.8432014043615,0.1879072502026205,1.4341237168768259e-05,0.18789290896545174
