frequency_cm1,total_intensity,isotropic_intensity,anisotropic_intensity
0.893406914092264,0.0,0.0,0.0
0.07120832364780627,0.0,0.0,0.0
1.575802712857929e-05,0.0,0.0,0.0
1.716992297029771e-05,0.0,0.0,0.0
2.5926159015208545e-05,0.0,0.0,0.0
1.2391730203687077,0.0,0.0,0.0
11.602918447532932,0.0052738273099055735,3.7022253294275595e-05,0.005236805056611298
20.91770825869319,0.002714342490419167,1.4998417441322346e-05,0.0026993440729778445
25.337976989807697,0.001230816110559917,1.3034840210061783e-06,0.0012295126265389107
34.49794330760969,0.002339295202798246,2.4200293362505832e-05,0.00231509490943574
48.565660585672646,0.004381351903879628,2.3686071292153725e-06,0.004378983296750413
59.18852159078331,0.0034233641571873794,0.00022782805638569073,0.0031955361008016887
66.07687235319932,0.0004917098420665199,8.908623869352199e-05,0.00040262360337299795
75.21972983917821,0.0006178997265767735,0.0002981432379915169,0.0003197564885852565
87.56521267192592,0.0033159765001344096,0.0007031275887879921,0.0026128489113464177
93.59383033441006,0.004795295133040453,5.026261180508763e-07,0.0047947925069224025
114.39295088879021,0.002623114403487554,0.00022895568275683003,0.0023941587207307238
125.36843022984209,0.000927927438572165,0.0004941800804395988,0.00043374735813256614
130.51106850685315,0.000486007511678138,7.589912859277422e-05,0.0004101083830853638
160.0873437350791,0.0006256000008478883,7.874553788712603e-07,0.000624812545469017
195.72750708554062,0.001986667170391154,0.0009522780419380033,0.0010343891284531508
203.9097150034756,0.0009511217266398262,0.0005713772562698484,0.0003797444703699778
236.2443776898688,0.0016030793716462458,0.0007025965178327615,0.0009004828538134843
244.14341840698341,0.0003511605863507818,3.3811461321838876e-05,0.0003173491250289429
253.03729688739267,0.0022753951648825715,0.00011590184570241183,0.0021594933191801595
272.29512708207284,0.00038582741263506565,3.309435087414055e-05,0.0003527330617609251
289.991318137841,0.0050730220333509045,0.004740818551331143,0.0003322034820197612
308.7724760775445,0.0075679996151536925,0.006101976053831382,0.00146602356132231
347.4199306907367,0.00463646547026651,0.0030287094819315204,0.0016077559883349894
376.58815703336467,0.006275846444623568,0.00451850844117105,0.0017573380034525176
402.60594095044087,0.006007753849474909,0.003990859240627178,0.002016894608847731
428.49976609202236,0.004819168218040957,0.001436476853884561,0.0033826913641563957
438.3038272418296,0.009548160670830934,0.002882076265484564,0.00666608440534637
486.1936214523969,0.006827396250839378,0.004012957700083054,0.002814438550756324
519.6937242275566,0.002191582701399549,2.1056436002661807e-05,0.0021705262653968875
559.2074991564167,0.0060358168189894226,0.001800163709455085,0.004235653109534338
651.064340337995,0.008888042140318448,0.0044926293292306945,0.004395412811087754
709.8639274963195,0.00298574066411044,8.663297325044079e-05,0.002899107690859999
726.5492381165495,0.00023920418163299475,0.00017653149394584978,6.267268768714495e-05
731.8479505271689,0.00212274618910479,1.398272262722925e-06,0.002121347916842067
748.5002101596843,0.0028061038436970145,0.0002038351318434572,0.0026022687118535575
765.2393790482748,0.002564331294563447,0.0012344124869705952,0.0013299188075928518
779.5130749687056,0.008786726527969052,8.428825757535354e-06,0.008778297702211517
800.2030448682337,0.004293043520838308,0.0019775592948169324,0.002315484226021376
827.0966001428703,0.05816677612718487,0.05166185357772268,0.00650492254946219
857.6731725186804,0.05021054001827045,0.038127330081951884,0.012083209936318565
888.3601128331012,0.028794047248107895,0.003928803342575747,0.024865243905532148
901.7509296154965,0.03204599048700296,0.02300649232910014,0.00903949815790282
913.818142100262,0.006319321886731509,0.0003554764741458202,0.0059638454125856884
923.2084095873078,0.07571855426771015,0.06283369302504403,0.012884861242666128
940.6207739934782,0.0023685499549801745,0.00013736051238965151,0.002231189442590523
954.1476830530935,0.005670561702568137,3.9245781204131726e-05,0.005631315921364005
961.1150035456276,0.006435708982877029,0.0003347147033033801,0.006100994279573649
964.8327804940152,0.006844914563868241,5.10901102651883e-05,0.006793824453603052
977.9580420511808,0.007079391474131309,0.0012483395367417329,0.005831051937389576
997.8176183215311,0.01124748758505816,0.00469497882972271,0.006552508755335451
1025.3867284470878,0.004585249281493793,0.0019304509344388622,0.0026547983470549307
1034.2776271683542,0.015402511541370073,0.007973916462662354,0.007428595078707719
1035.82304139066,0.01274984531473408,0.004488880056980582,0.008260965257753498
1053.0305967603047,0.0299567943879073,0.015506492976079577,0.014450301411827722
1061.4951342936183,0.012412462084157576,0.0038771513995356057,0.008535310684621971
1072.3290308844873,0.015130442315636365,4.966346151403753e-05,0.015080778854122328
1077.7075063943923,0.026465448575877893,0.005391384240660573,0.02107406433521732
1089.9686172464,0.009017881719305326,0.0012435375441066689,0.007774344175198657
1095.846940535147,0.0054500884093857315,4.467912911988107e-05,0.00540540928026585
1103.0115043325695,0.035395352538566745,0.00017781750232193934,0.03521753503624481
1103.7268171759472,0.018302178958242876,0.00013706324443743398,0.01816511571380544
1125.0425160767106,0.01198563279310617,0.005803050244195482,0.0061825825489106884
1130.0559853181542,0.04082379191194809,0.00048443729762240697,0.04033935461432568
1146.9561716602727,0.012337592102440592,0.004826019610710904,0.0075115724917296876
1166.5627765615134,0.011468316744884011,0.006139224283198033,0.005329092461685977
1177.0265193416565,0.014359063434427055,0.009552307161034218,0.004806756273392838
1198.4804485878494,0.017781345620964534,0.0029866923782574193,0.014794653242707113
1212.7850175583983,0.008884060891309945,0.00284898432205029,0.006035076569259656
1239.9716826125928,0.008312051912963003,0.0012384767676445775,0.007073575145318426
1252.8064934908052,0.006109038594341371,0.0013530589803738842,0.004755979613967487
1266.1295907107547,0.00863694681448123,0.005106978317508489,0.003529968496972741
1266.8269238179275,0.010956057981737877,0.003821409228504381,0.007134648753233495
1284.6824833784328,0.0007663647644924809,0.00035192197341633657,0.00041444279107614437
1294.7345331660242,0.0012990085882805535,0.00017208975022411018,0.0011269188380564434
1301.7327962840243,0.01457738404877006,0.0025164409241349482,0.01206094312463511
1309.4879864371392,0.006676438077446544,0.001034489998739898,0.005641948078706646
1315.0256297047636,0.051547827072306984,0.009677410576377067,0.041870416495929916
1324.178815609944,0.011154147006084848,0.002744726185900941,0.008409420820183906
1326.8850163535035,0.030084884744582138,0.01590271574776936,0.014182168996812777
1330.5657060162096,0.029114556102452657,0.00596121397371164,0.023153342128741018
1332.0011148811095,0.008649446101024933,0.004738430915830161,0.003911015185194773
1338.1523119442913,0.03323159859886382,0.009735785991681132,0.023495812607182687
1340.5798571827543,0.17859498763449602,0.0006021349641246462,0.17799285267037138
1344.8628292909207,0.00907252049490712,5.650526350124221e-06,0.009066869968556995
1357.3930499067828,0.013301014597967774,6.0651412687659076e-05,0.013240363185280116
1375.8110233276386,0.00478772127600073,0.00022997477189044423,0.004557746504110286
1379.0579007134668,0.005131773834857595,0.0005822196114803356,0.004549554223377259
1387.9939693300314,0.0010057624684982147,0.0005737262567181937,0.0004320362117800211
1394.2171736799232,0.005747049523118126,5.9572295456710555e-05,0.005687477227661416
1403.234776180991,0.007285974091428375,0.0016111736157618046,0.00567480047566657
1408.1693120057812,0.004340851045487035,4.329176193809415e-06,0.004336521869293225
1412.236230703966,0.0013258903908838487,0.0006711050634974337,0.0006547853273864149
1415.2096195116317,0.006378416880354466,1.1786397144240057e-06,0.006377238240640042
1415.8211485884965,0.005185156742443595,0.0020032179237493776,0.0031819388186942175
1418.6731641418928,0.010617812911592514,0.00127373982180785,0.009344073089784664
1452.322152336566,0.05782932791799258,0.019138566646836677,0.0386907612711559
1473.3618805428202,0.0628959039270682,0.0017899643013476422,0.06110593962572056
1476.7052243188193,0.04122681061205627,0.0015733443528408724,0.0396534662592154
1481.0634961854755,0.053605730236403595,0.0031911968720456573,0.05041453336435794
1481.5186791695833,0.05118855373419798,0.0009316449242295615,0.050256908809968415
1483.6735009026263,0.008367610351294628,0.0002519655408697133,0.008115644810424915
1485.470200771259,0.029339449729551402,0.0004784199416677966,0.028861029787883605
1488.4060904838743,0.013131409093979432,0.0005003577024113711,0.012631051391568062
1491.0792384878232,0.0029330409504063184,0.00037869025283178935,0.002554350697574529
1492.0506527941448,0.008532124885036164,0.0007209740560372551,0.00781115082899891
1493.5890977128813,0.030954958158485237,0.00012559023767058658,0.03082936792081465
1494.1705946969062,0.013157475673421532,3.673955523538762e-05,0.013120736118186144
1497.3359753846808,0.016625958129861312,0.0009682682403291668,0.015657689889532145
1502.2509740456292,0.00687100146999344,0.00026683211710255145,0.006604169352890888
1502.8959385298883,0.0044713997933481745,3.774110625977108e-05,0.004433658687088404
1504.7827555422564,0.0017809681786272744,1.3577603658524001e-05,0.0017673905749687503
1507.002380609924,0.031883451376424954,0.0013574639982464813,0.030525987378178472
1736.0622795919335,0.2152024321925062,0.1707146912870182,0.04448774090548801
3025.9024584629283,0.19548375793847755,0.14332444424915597,0.05215931368932157
3026.394744254318,1.087304660639677,0.9106362551992934,0.17666840544038365
3027.1194266660827,0.05253860981931941,0.02474131550439319,0.02779729431492622
3028.0678806582814,0.4212693502845291,0.37527259745425834,0.04599675283027078
3031.6744058186005,1.5952526166423684,1.3769952295362309,0.21825738710613754
3032.799593599297,0.21538670792246017,0.1641687389707348,0.05121796895172537
3035.774705506669,0.1619648555019022,0.1027693672630629,0.05919548823883929
3039.262254715602,0.19977923862415647,0.12779761727612685,0.07198162134802964
3040.4048850325917,0.37836836602568247,0.04440629413455846,0.333962071891124
3040.9310796026634,0.08946443889201795,0.06298572630353717,0.026478712588480776
3042.0051939518053,0.5784966220175812,0.4580684328898421,0.12042818912773909
3043.905498827953,0.4509172515515346,0.3265831357631116,0.124334115788423
3046.0432138774972,0.21791980074348632,0.1497528134674058,0.06816698727608053
3049.503006183292,0.7682732454216596,0.7447254006955157,0.023547844726143952
3056.4668058360517,1.3022762208878116,0.9839097077924501,0.3183665130953614
3057.680870162247,0.38337920212673354,0.02348883917677873,0.3598903629499548
3059.964220616045,0.7252957604890276,0.41215225460001925,0.31314350588900836
3064.676080470898,0.6008691120758337,0.5763061069764543,0.02456300509937934
3069.0843446630206,0.05172913961208893,0.019032807686431296,0.03269633192565763
3070.7046728210785,0.20013645643283964,0.016184674042325736,0.1839517823905139
3071.9064095680046,0.4873331821418172,0.13658071963500265,0.3507524625068146
3075.4858711746465,1.0530059995155971,0.606057292316619,0.44694870719897806
3078.468223439939,0.1675102250097579,0.051396936326400834,0.11611328868335707
3084.0613922096945,0.10862179503457015,0.034576321334844985,0.07404547369972515
3088.730880124309,0.04573526250211975,0.0019751542210493297,0.043760108281070416
3091.377514014923,0.04855580495145087,0.018479148646219436,0.030076656305231434
3094.7091821135336,0.06776792715242519,0.005275099737421955,0.06249282741500324
3097.8661978145547,0.03591877191710495,0.0012009255876247159,0.03471784632948023
3105.4794645265433,0.12186867599626316,0.04819731832208756,0.0736713576741756
3112.7300336104427,0.11499489464677617,2.797742545683891e-05,0.11496691722131934
3120.7918874391576,0.4159519565166035,0.06975630307019925,0.34619565344640424
3148.7724812167094,0.2001228539435252,0.04925408775526644,0.15086876618825876
3155.3322194430507,0.7858835212909984,0.6367421132410264,0.14914140804997197
3241.149795868637,0.38471416730800867,0.06832933130169935,0.31638483600630934
