frequency_cm1,total_intensity,isotropic_intensity,anisotropic_intensity
0.6675237441708106,0.0,0.0,0.0
4.253095104798589e-05,0.0,0.0,0.0
3.5447596872519645e-05,0.0,0.0,0.0
2.0221832755851725e-05,0.0,0.0,0.0
0.8727455421184168,0.0,0.0,0.0
2.414533591774311,0.0,0.0,0.0
24.044179181085546,0.001237362480489472,7.500670825239143e-06,0.0012298618096642329
33.412272034543236,0.0008157683266743913,2.3006258808644786e-05,0.0007927620678657466
61.9535562019069,0.0006010828671169845,1.0351608816546916e-05,0.0005907312583004376
73.72625826917586,0.0013810968763241901,2.0553844306780214e-06,0.0013790414918935122
108.67684491130805,0.0011416613658599322,9.99309697527156e-05,0.0010417303961072165
129.96024055935837,0.0005629107442241007,3.5882240825480874e-05,0.0005270285033986198
141.08674942918645,0.0004282090052342255,1.828621168261179e-05,0.00040992279355161375
168.7321756501086,0.0010596003029214763,6.767718637708883e-05,0.0009919231165443874
227.1685519235414,0.0013049016741692964,0.0010706094084701326,0.00023429226569916372
244.28823820024212,0.0010103925360440066,0.0006890492092014502,0.0003213433268425564
250.06496198903682,0.0012478373084499094,0.0010803719022415518,0.00016746540620835764
275.6319314746178,0.0004973666840435958,0.00018252487152958612,0.0003148418125140097
282.35277296732454,0.006019008736474016,0.004704045000289227,0.0013149637361847882
300.63197306758076,0.00298062406423889,0.002366743558951867,0.000613880505287023
345.1133216581092,0.005192428355554733,0.0038505517170085574,0.0013418766385461754
369.7191939863931,0.0013503658150003002,4.1342637928292064e-05,0.0013090231770720082
382.0219269058241,0.003036518862170271,0.0020874919814076573,0.000949026880762614
433.1252193342069,0.00465559838348794,0.00023073478234495368,0.004424863601142986
500.5765735719767,0.009309780200282749,0.007363898669880371,0.0019458815304023791
550.5028438986435,0.00418217712822845,0.0008616557194105872,0.0033205214088178627
738.5685778526646,0.003161258772219307,0.00224746435186228,0.0009137944203570271
749.0875725249505,0.002060026606146628,0.001299615895310915,0.0007604107108357128
765.200524353438,0.020672953184776688,0.015457202889226633,0.005215750295550055
807.3941749481834,0.04661655522338864,0.04174581571852531,0.004870739504863331
826.4567001911216,0.007432414449560146,0.003060174355685235,0.004372240093874912
848.9050365480407,0.033905256949755345,0.03169342204298366,0.002211834906771688
893.2702873338384,0.01885491620673794,0.009311025740004765,0.009543890466733174
926.9102770707256,0.004905700842891292,0.0023663957923846317,0.002539305050506661
940.6089397475407,0.005278496166431603,0.0003957171701444189,0.004882778996287184
957.6314860100334,0.012016019611142995,0.011547329240873415,0.00046869037026957944
966.3135320472412,0.023256681896620147,0.0064062980644050554,0.016850383832215092
974.7333254671898,0.013041557317100452,0.0011947821796886057,0.011846775137411846
989.4562013460657,0.029586442136427242,0.009963638437052223,0.019622803699375017
1022.5802758027263,0.011545210936283686,0.007735771831619381,0.0038094391046643063
1039.8384561755347,0.010723868959949324,0.006403954297133547,0.004319914662815777
1057.2800094550296,0.015687288311328037,1.2522281211843885e-05,0.015674766030116194
1085.0912188810605,0.00970201020189544,0.001778382166893676,0.007923628035001764
1096.4063642080027,0.017518012807461545,0.0012260365962012804,0.016291976211260266
1113.729544346375,0.019121279502571524,0.00011234837269257101,0.019008931129878955
1120.9703618573353,0.01906449508859632,0.0016688675128140264,0.017395627575782294
1161.5119514572036,0.01806439849580812,0.0141564918207267,0.00390790667508142
1170.3147156650707,0.0064674087376704855,0.0004063043291284691,0.0060611044085420165
1209.3751384153402,0.014321118157696704,0.0035703518294679403,0.010750766328228764
1210.0822098263834,0.011605133474060276,1.9694492861395815e-05,0.011585438981198879
1231.4095941867865,0.0030107916351797136,0.002251606676448912,0.0007591849587308017
1252.5017788093755,0.01309135879934597,0.0026381990451729022,0.010453159754173068
1282.4288534388434,0.0044162678663663656,0.001171372555056696,0.0032448953113096693
1302.4351512837786,0.01260621903584213,0.00040340682051309327,0.012202812215329036
1313.7817235775597,0.010108311622070583,0.0033294454442496344,0.006778866177820948
1326.6311950356435,0.020264770044362394,0.00014375583925765761,0.020121014205104735
1336.957787431691,0.06341225871436144,0.0004313584818710646,0.06298090023249038
1339.9424112233746,0.0012285897448158132,0.0004178295690943516,0.0008107601757214615
1359.920398794081,0.011967645515518169,0.0033620865107330455,0.008605559004785122
1372.1898595593652,0.004167790094962582,5.384036660569141e-05,0.004113949728356891
1376.2501174746726,0.004445273875776902,0.00015032607009444094,0.004294947805682461
1380.7271095240405,0.0038519541171384473,0.0002485802603122972,0.00360337385682615
1386.8405766700353,0.009912720331153448,0.00066863082094466,0.009244089510208789
1402.9269738012642,0.001203726190973672,3.4881731252361554e-05,0.0011688444597213105
1404.6758113453025,0.005767402101805148,0.001246811909391593,0.004520590192413555
1412.636390927794,0.0013723030143117543,0.0002770075948951363,0.001095295419416618
1415.6869250827995,0.001505853323368535,8.721544240020714e-05,0.001418637880968328
1419.8498426577883,0.0017811760862932531,0.00014982575765864255,0.0016313503286346106
1478.9570585587126,0.059157097826377486,0.0006358177759901579,0.05852128005038733
1479.5832908154268,0.034333389580063156,0.0003366499320887483,0.03399673964797441
1480.4685464689187,0.019121604732258206,0.00021431378604080273,0.018907290946217403
1483.257304357563,0.02720675112446787,0.0004816024585289914,0.02672514866593888
1487.7309979803526,0.05372935130004731,0.00021807125314567767,0.05351128004690163
1491.2240887010646,0.021486121117300413,0.00014957052595551871,0.021336550591344892
1493.166446137912,0.007252602517429337,3.947289737424611e-05,0.007213129620055091
1494.4413296651078,0.011351241810597289,0.00020079943040394815,0.01115044238019334
1498.3676575562333,0.005553772496885663,0.00022406402589748617,0.005329708470988177
1500.662724815416,0.008362533725609893,7.385424351062962e-05,0.008288679482099263
1501.9319499858511,0.006618663039729805,3.1413072388297705e-06,0.006615521732490975
1505.9396291186038,0.01563941640514851,4.831135694302982e-06,0.01563458526945421
1510.9958600864536,0.005989776941108756,1.4222763799920327e-05,0.005975554177308835
3024.092323137399,0.13224763867052272,2.3631082190123202e-06,0.1322452755623037
3028.5690634778607,0.5960249253943037,0.42207619329383467,0.17394873210046902
3033.553937552295,0.33168603932687124,0.21229927340056504,0.11938676592630622
3037.9018130795184,0.23841943023906126,0.08338006994796847,0.1550393602910928
3038.9277391335872,0.6577235890613702,0.465080626888714,0.19264296217265622
3042.4712449483895,1.1704220488056154,0.9715252843376224,0.19889676446799295
3045.691031414062,0.12787013686025728,0.09584610815186784,0.032024028708389427
3048.325046081776,0.11735083601223585,0.05056143957810556,0.06678939643413029
3049.4659766242903,0.06872052709376163,0.012862170710642147,0.05585835638311948
3053.1130448109216,2.1749684212847704,2.1209048567371473,0.05406356454762306
3053.454807097102,0.9659245881244654,0.9210764538727501,0.04484813425171532
3061.1426306380918,0.7276584121682101,0.3179618980377961,0.40969651413041397
3065.321196384612,0.2009305085496369,0.0911161850505832,0.10981432349905368
3072.66446980547,0.3870865225257931,0.049431338664650916,0.3376551838611422
3078.441653453592,0.5203769098342429,0.2517337902917676,0.2686431195424753
3084.551866188049,0.6746807654228855,0.37432429314154264,0.3003564722813428
3095.69033486876,0.08355457898498901,0.0171838574218796,0.06637072156310941
3101.4511461155416,0.014678531171118912,0.007604305023545556,0.007074226147573357
3113.7783096270205,0.17935670399065792,0.007254266029100075,0.17210243796155786
3114.944594851578,0.041873680729445466,0.005460407296371271,0.0364132734330742
3115.9290163659703,0.09861509910017863,0.019174092549337794,0.07944100655084084
3116.5855094119797,0.5135741096674954,0.0006109770321556742,0.5129631326353398
3119.057318953789,0.356557761692654,0.03685358708330931,0.3197041746093447
3124.274111873216,0.21591727149322032,0.03750674367270703,0.17841052782051328
