frequency_cm1,total_intensity,isotropic_intensity,anisotropic_intensity
1.3590880262110372,0.0,0.0,0.0
2.1638044982647647e-05,0.0,0.0,0.0
5.981148543706568e-06,0.0,0.0,0.0
1.1372205077703063e-05,0.0,0.0,0.0
1.0583539695156927,0.0,0.0,0.0
1.2329925104071666,0.0,0.0,0.0
14.645526100722611,0.01020256262460342,2.2325143369026798e-07,0.010202339373169729
26.82637275029799,0.0018277163437649096,4.143315779718408e-07,0.0018273020121869377
27.771568783254622,9.685516860534668e-05,3.347728931882082e-05,6.337787928652586e-05
39.99262801140364,0.0052790107677879086,6.194882876609231e-08,0.005278948818959142
72.75436042001313,0.00015044997123476417,1.2081167452567796e-09,0.0001504487631180189
78.66483240154763,0.0003513519704290787,0.00026927637557273496,8.207559485634372e-05
94.51788480183211,0.00010671408040060864,9.198692895312294e-08,0.00010662209347165552
120.8781349559536,0.00016369760622384857,3.2382985546695755e-08,0.00016366522323830188
136.40246238507368,0.0031845786696951387,3.383934636950873e-06,0.003181194735058188
143.93585292338986,0.027535229775490513,0.015048460238998404,0.01248676953649211
154.6407579605199,0.00011346593099453704,2.4468818527506673e-07,0.00011322124280926197
161.07078399862732,0.002238926428710337,0.0008093191499517229,0.0014296072787586137
163.7883975505699,2.9076776547404665e-05,5.390085259247495e-07,2.8537768021479914e-05
230.85712768977498,0.00011845467444889353,4.63083316845119e-08,0.00011840836611720901
238.87084786564398,0.0025744050913881567,1.3298295372420692e-05,0.002561106796015736
245.5353793234151,2.5477358753568997e-05,8.384316528789748e-10,2.547652032191612e-05
296.9062124517739,0.0001294454183969048,2.5599589747537776e-08,0.00012941981880715725
313.9663974526724,0.0005067529545846723,3.878864435349468e-05,0.0004679643102311777
353.7507815034616,0.004828492818809306,0.00034015400915863816,0.004488338809650668
444.3726617209064,0.0031160824659029664,0.0012697344136128658,0.0018463480522901005
447.19963798111667,0.0026245660956742954,2.8256932597892595e-06,0.0026217404024145062
455.4900351854574,0.00190985689149427,0.0005015352012741276,0.0014083216902201425
492.6916916142578,0.0006474521684413437,0.00045472029756471704,0.00019273187087662664
525.4438470455449,0.020130531378027505,0.004966223129697741,0.015164308248329763
566.5690855268093,0.001125030610998338,1.1101414602341407e-06,0.001123920469538104
614.5119255849975,0.013332533523707196,0.009394902124071132,0.003937631399636063
628.6555944869624,0.0003984189384200243,1.6415639662393017e-07,0.00039825478202340037
683.4404021266573,0.0031292056805125564,5.680429183885883e-07,0.0031286376375941677
691.8503228523188,0.05320844451687392,0.019862388713881504,0.033346055802992415
729.5786817095251,0.0003836985025894715,2.0251339745065485e-07,0.0003834959891920208
735.1669477704882,1.7805395941519832e-05,2.2544133642456118e-06,1.555098257727422e-05
752.8953417554104,0.0001919799714619652,4.3459213301117705e-06,0.00018763405013185345
787.5247880179193,0.08741113213409275,0.05146781795375126,0.035943314180341496
795.661443946666,0.00011041642696531222,8.315679714470444e-06,0.00010210074725084177
838.3752466858929,0.0011624509756567973,9.869968148749782e-07,0.0011614639788419224
860.9030432206084,0.08378512772310887,0.03666478699600998,0.047120340727098885
864.4127085204601,7.405563757044626e-05,3.758353619736976e-06,7.029728395070928e-05
908.7887014543659,0.022230505753287284,0.013354687186474874,0.008875818566812408
919.0922674065426,0.0017829269972647324,2.3291588292470933e-08,0.00178290370567644
945.097105215907,0.001068731956066896,3.598232647668645e-06,0.0010651337234192275
951.7451999458309,0.017846898683637855,0.01284672660761413,0.005000172076023723
985.3066887949918,1.4428692578148052e-05,3.2606529275459505e-07,1.4102627285393457e-05
999.1752287903271,0.04662378815202736,0.029397666309733627,0.017226121842293735
1016.2489257051944,0.010672767115476047,0.007261852829971281,0.0034109142855047662
1022.0543657501086,0.00044186622587861845,1.5175530309502587e-05,0.00042669069556911584
1039.9656736138631,0.02046972406613326,0.009347553798560426,0.011122170267572833
1065.3843865255558,0.025602467336696032,0.0057593177464651335,0.0198431495902309
1080.8224561668803,0.030521600924482185,0.015311294040668104,0.01521030688381408
1088.9793358279715,0.01786157778371774,0.0034809797704585727,0.014380598013259168
1091.3051754755584,0.05707005054413884,0.007407664348347969,0.04966238619579087
1093.2860150129482,0.0055206572951351455,1.5467591895309983e-05,0.005505189703239836
1115.0633471680321,0.045188929078856244,0.03506474851289763,0.010124180565958613
1149.2578591787542,0.12975304646100008,0.08155279692895019,0.048200249532049884
1193.0270967596796,0.03457396913003674,0.02419410575304017,0.010379863376996574
1209.905436776167,0.00623120351428168,1.0162609195492739e-06,0.006230187253362131
1228.271271338273,0.03473983743224783,0.015792488461328084,0.01894734897091975
1240.1581733720172,0.001653949699018283,0.001032960662521177,0.0006209890364971061
1245.8816330768104,0.0018716935843859225,3.24183664349365e-07,0.001871369400721573
1265.6801785486405,0.0029481877723769065,0.0009664406289895734,0.001981747143387333
1275.0393182715234,0.27766067626421015,0.15652033662669332,0.12114033963751684
1286.3492704223936,0.00574855194898998,1.6259655926302477e-07,0.005748389352430717
1309.0141816643513,0.02987487582996664,0.013930039184941703,0.015944836645024937
1318.2427211425927,0.00013702856394746908,9.259801638296562e-07,0.0001361025837836394
1321.733814677992,0.09410507867585656,0.06051125684317635,0.03359382183268021
1329.5985588331932,0.09437966177161351,9.695781022473596e-07,0.09437869219351126
1336.4386965043293,5.446527473646174e-05,6.407926928163829e-10,5.4464633943768925e-05
1339.8073559573186,0.00261972198425856,1.0541277366414619e-06,0.0026186678565219184
1355.8411315657859,0.014726985763762527,0.006676841987348033,0.008050143776414493
1377.373490624653,0.4367560409829787,0.2254819556664761,0.2112740853165026
1393.230141693775,0.008831883513166331,0.0013392509340180536,0.007492632579148278
1411.603470403586,0.02682502083168607,0.0009968940240135179,0.02582812680767255
1412.5173165938818,0.007221370705247809,0.0004515861497758289,0.00676978455547198
1415.7987316905048,0.006449548532244622,0.003674892784107261,0.002774655748137361
1420.896035995237,0.0053323071969491225,0.0008973293876082261,0.004434977809340896
1429.6431326937025,0.1741374931553457,0.056836835926563474,0.11730065722878225
1476.764426632868,0.03511096366583342,0.014432840231729504,0.020678123434103912
1481.2031302361195,0.01241454033308772,0.007088845327951577,0.005325695005136143
1482.5121736945348,0.06165865742797809,0.010410806693226481,0.05124785073475161
1485.0945703468456,0.13155659722397925,0.014533373437236667,0.11702322378674258
1489.561156220369,0.0025276179875293086,0.00019977222397347757,0.002327845763555831
1493.8956528665612,0.02695570423489638,5.382913462094679e-08,0.02695565040576176
1496.0381972064856,0.0120252737747691,0.0004828414059064661,0.011542432368862635
1502.3993044816873,0.0006095116238493413,0.00015839220719020167,0.00045111941665913963
1506.2192818960502,0.003502827088920816,5.6991242141029785e-05,0.0034458358467797864
1512.360687838718,0.015497189956378271,0.0008820366720340983,0.014615153284344174
1543.5317096042008,0.1434800673037586,0.04286414071470208,0.10061592658905652
1615.5958112067096,0.25367928805335466,9.827226506312635e-07,0.253678305330704
1664.6377914532416,0.13748720608304604,0.08314108955117507,0.05434611653187097
3024.5051520818606,0.5878506710908455,0.5623818772524121,0.0254687938384335
3026.586026293192,0.49205284793526916,0.48724947985651446,0.004803368078754694
3031.5348012684117,0.9532195816281441,0.9255825699549786,0.027637011673165516
3037.421580664996,0.033856225382249396,0.02794095058553366,0.005915274796715739
3041.8262610619195,0.6955048584745543,0.6656419079109579,0.029862950563596485
3047.00487232459,0.813233399788066,0.00010482478381606785,0.81312857500425
3050.271908592068,0.020246796569464688,0.010292265799487955,0.009954530769976735
3050.6666947599415,1.1136386523119808,1.1040295012763783,0.009609151035602557
3054.6517063655215,0.019602558722857853,3.078911241478537e-05,0.019571769610443067
3065.754112238942,0.26409483942884615,7.722265180245077e-06,0.2640871171636659
3076.2211669801086,0.001940380167116229,7.193329749742267e-07,0.001939660834141255
3085.894079951098,0.10483643154032825,8.303116809894657e-07,0.10483560122864725
3096.821386436037,0.030136306723442443,6.889678560650761e-05,0.030067409937835934
3104.6514943547045,0.35452449277085984,0.33871868622429196,0.015805806546567852
3113.5318172638467,0.1320000128258568,7.4167154127792806e-06,0.13199259611044403
3121.8538606113993,0.4141781959057417,0.06409578524794543,0.3500824106577963
3159.9126504813335,0.08036771520383244,4.310720715261708e-05,0.08032460799667983
3203.6031759825405,0.5914523220629295,0.3083436053651794,0.2831087166977502
3257.2248076849182,0.600640264027789,0.30479140631263174,0.29584885771515734
3698.8758065157285,0.48060615592913325,0.3218657701121728,0.15874038581696046
