frequency_cm1,total_intensity,isotropic_intensity,anisotropic_intensity
1.3939219237165739,0.0,0.0,0.0
1.9166410495940112e-05,0.0,0.0,0.0
7.3665206554959215e-06,0.0,0.0,0.0
3.080258679277272e-05,0.0,0.0,0.0
0.8595560183716454,0.0,0.0,0.0
1.965737551418719,0.0,0.0,0.0
23.329185432154723,0.004600313525135087,4.5296874578934896e-05,0.004555016650556153
36.30891762055582,0.0016013138404608023,3.6754007604214155e-05,0.0015645598328565883
42.27728628902133,0.0011749813774209264,9.310903997479422e-06,0.0011656704734234469
57.58118783895374,0.000317211492218139,7.861111835840852e-06,0.00030935038038229815
73.01772954462575,0.0009971530215782108,8.059185118574468e-06,0.0009890938364596363
90.98648066325644,0.00034360386259952783,3.5567708074743525e-06,0.00034004709179205346
110.97865372224923,0.007172880398612961,0.0006603730478940168,0.006512507350718944
125.46591921570315,0.000820528009131552,0.000210682422099654,0.000609845587031898
145.11238466901915,0.0018158718905754714,0.00041069402982934583,0.0014051778607461255
156.96760892357344,0.0007405297577864863,0.0006322530425891891,0.00010827671519729721
214.44604796906913,0.002497653120957727,0.0013487731085955253,0.001148880012362202
229.80237128601502,0.009304308947878169,0.00756308840386811,0.0017412205440100587
245.57214165119987,0.007306490588149316,0.005227264717990997,0.0020792258701583196
260.35439254145484,0.0010043204921167258,0.00016022648066925998,0.0008440940114474659
278.98242393298256,0.0017732965143131825,2.009802633845469e-05,0.0017531984879747278
314.1582346371506,4.957737525307162e-05,5.236973855150315e-06,4.434040139792131e-05
359.8548974547234,0.0026557409275323983,1.841477553503802e-05,0.00263732615199736
389.9886417578907,0.004432809820090174,0.001531577089621606,0.0029012327304685677
493.0234309213031,0.0037344136304673964,0.002892381880501617,0.0008420317499657797
504.08801838065165,0.005959152893710291,0.005017859141207213,0.0009412937525030785
549.1001974146476,0.00809078573261399,0.002517661467911004,0.005573124264702986
727.272917873642,0.0009162474128564745,4.2405869327989995e-06,0.0009120068259236755
738.4893367378412,0.0009834256695982154,2.1554731303639516e-05,0.0009618709382945758
751.6808283210805,0.002336652184554708,4.1633918957027335e-05,0.002295018265597681
771.5948273960731,0.007156120380340405,0.004661217495702026,0.0024949028846383793
807.9715179174191,0.007341753738714006,0.004643563873649261,0.0026981898650647444
844.2395859011755,0.012756147108524097,0.0003621095827400637,0.012394037525784033
857.9353818548906,0.03092256033847449,0.02090265451759129,0.0100199058208832
884.0294278399898,0.024733775557748628,0.018608207458029342,0.006125568099719287
914.8971391438315,0.021551610887046622,0.012803940433971999,0.008747670453074624
955.2651159003823,0.0009309609246437515,0.0006510041551711655,0.00027995676947258606
982.3464806525558,0.0020544875247834457,0.00025897675114973004,0.0017955107736337156
1007.472876915393,0.005608904603798261,0.0025092931936264626,0.003099611410171799
1009.1419875445338,0.021669894560090636,0.00885505591602899,0.012814838644061646
1038.734031600171,0.00658905642033665,0.002391638356956677,0.004197418063379974
1044.7948333126692,0.006010224216595374,0.0004237673749317034,0.005586456841663671
1057.317822162449,0.02788889847570089,0.009549251549700963,0.018339646925999927
1067.0030455610226,0.08846569055665685,0.04697920672237929,0.041486483834277554
1083.8204346489294,0.054875226042181306,0.028233344444066867,0.02664188159811444
1085.204267006289,0.017335164925076803,0.0037034726482269528,0.01363169227684985
1096.9701613987174,0.025459374367298605,0.014088778620323443,0.011370595746975161
1107.5443831804826,0.0353874133144077,0.0002068620537983326,0.035180551260609365
1121.7880122195793,0.005228989006264224,0.002465391300034196,0.002763597706230028
1147.156882985802,0.042734311839789006,0.008191352868786007,0.034542958971003
1187.5871715485957,0.01795970940829389,0.009854627759625537,0.008105081648668353
1200.2436266363552,0.023133589953071867,0.007912105875324052,0.015221484077747816
1237.674421725527,0.0022936363244177643,0.0005637808033713842,0.00172985552104638
1250.166406094769,0.001571618353239476,0.00041733431321378005,0.0011542840400256959
1276.0414156144493,0.019031152620056523,0.004885191046675046,0.014145961573381478
1281.1004009668923,0.012118975146943003,8.286536763607943e-06,0.012110688610179396
1298.4623414779885,0.03844254678012783,0.008279483650707783,0.030163063129420045
1308.668553833818,0.03616354764166657,0.007466612184061808,0.028696935457604763
1320.7437582889038,0.04702652704509072,0.01671005546500004,0.030316471580090678
1328.3756560399254,0.018240053777035966,4.085557277863194e-05,0.018199198204257333
1331.5667155672354,0.03859514015216416,0.004489261279506119,0.03410587887265804
1332.0850081942622,0.012218108259585489,0.005355666956698964,0.006862441302886524
1340.9630293050993,0.04773724121455135,0.025842297153739195,0.021894944060812153
1344.9406716731835,0.022961268271929954,0.0003819500479147362,0.022579318224015217
1362.4750332992237,0.020679892106377773,0.0029540304886694706,0.017725861617708304
1385.2726024244278,0.0013079149824584742,7.4478625578932995e-06,0.001300467119900581
1405.6502459870132,0.020240347858835744,0.0069968006410175915,0.013243547217818152
1407.0485415858197,0.0018022537561451476,5.348582176327874e-05,0.0017487679343818688
1407.996137640005,0.013744116914916914,0.0092209359944041,0.0045231809205128135
1412.2197708667031,0.0007140867906789599,0.0005068257346551818,0.00020726105602377807
1417.4924516430945,0.009215717219341526,0.0021289705114122103,0.0070867467079293155
1478.0607482556666,0.020344443619532145,0.004940457467413012,0.015403986152119131
1481.3259561225711,0.05151908065036679,0.0073977553989844095,0.04412132525138238
1481.955672158112,0.015976301973691154,0.0006187627017885825,0.01535753927190257
1482.3079550410066,0.14226141925345998,0.010898246828647281,0.13136317242481269
1484.6988680302343,0.019111765230138383,2.5201483807985063e-05,0.019086563746330398
1491.0373941726932,0.00974039744624736,7.994223353600089e-06,0.00973240322289376
1491.0667975885872,0.03606315630242585,5.120723118521731e-05,0.03601194907124063
1492.247135768686,0.002815015091866623,4.92058358785619e-06,0.0028100945082787667
1494.355187548482,0.027639196241185302,3.030809831391422e-05,0.027608888142871386
1499.199915035729,0.0050141877593330225,0.00047469203118133163,0.004539495728151691
1502.4132831931574,0.003288880485556301,1.2749987000537157e-06,0.0032876054868562475
1504.2433619106714,0.003810791838632113,9.524184668346292e-05,0.0037155499919486502
1771.0975863989142,0.3690891034049196,0.2155459573532968,0.15354314605162286
3025.441289194118,0.04467760702207528,0.0003232001495222577,0.04435440687255302
3025.6131606969643,0.30740232596002387,0.29194190294439165,0.015460423015632194
3028.22870957539,1.019278749284325,0.823446303433958,0.19583244585036705
3029.2599794258817,1.4080388545903495,1.3563265712670929,0.051712283323256614
3033.393826642271,0.08777405397703236,0.04694602452557901,0.04082802945145336
3039.1260975590326,0.16547109798240348,0.006502771100226138,0.15896832688217732
3042.7965920754677,0.40892174024106753,0.3189863963887813,0.08993534385228621
3042.9844119145964,0.7055384157235617,0.5368217170057202,0.16871669871784148
3050.5479893834336,0.855184556301438,0.8501658873236331,0.005018668977804841
3052.9179465408024,0.9773060107099991,0.9561441242521997,0.021161886457799345
3053.1638043404414,0.42053929787417077,0.005645963766472185,0.4148933341076986
3060.8470011894638,0.11592517243404005,0.014577312676434997,0.10134785975760505
3062.967898361727,0.9276476624379602,0.516573148077782,0.4110745143601782
3069.495714166009,0.12377800264376154,0.0004243842626257889,0.12335361838113576
3083.6810154373975,0.3191155316922215,0.005238644832214723,0.3138768868600068
3085.0300801849335,0.07576470802599419,0.017460143468987735,0.058304564557006465
3087.5029551642424,0.15763033541935786,0.0001210420091384293,0.15750929341021944
3094.425935601856,0.040264970861640166,0.01809601485070237,0.022168956010937796
3114.4869440968505,0.11949112983498518,4.252036353747051e-05,0.11944860947144771
3120.0669601596196,0.3169331382675039,0.22368290629851423,0.0932502319689897
3121.9850687736616,0.35831573218269974,0.04730028035883261,0.31101545182386714
3123.1124738646195,0.5018687468016505,0.200161443105149,0.30170730369650156
3128.1229818460456,0.3841102921499365,0.06444772367705086,0.31966256847288566
3133.020911198489,0.01220600415941147,0.00016437491902234535,0.012041629240389123
