frequency_cm1,total_intensity,isotropic_intensity,anisotropic_intensity
1.5985069709632669,0.0,0.0,0.0
0.5558255372126928,0.0,0.0,0.0
2.2957491489746163e-05,0.0,0.0,0.0
1.1332572843702e-05,0.0,0.0,0.0
1.993099650879346e-05,0.0,0.0,0.0
0.637303003729141,0.0,0.0,0.0
16.805652419521557,0.004153148506773675,2.878004178294017e-05,0.004124368464990735
22.77362387349082,0.026566100004860274,4.159909878020696e-05,0.026524500906080068
28.032167357445292,0.006611608807250744,1.5181017695106671e-06,0.006610090705481233
39.23001266785175,0.012629977402115517,0.0005037365885693546,0.012126240813546163
61.84842432496545,0.02028189461623968,0.0008060477379620046,0.019475846878277674
87.95309248003898,0.009979181157398808,0.0005609719609389899,0.009418209196459817
114.86518361507464,0.00724418424038913,0.00014348282220997,0.007100701418179161
136.50008407852184,0.0022294471216743597,0.00038363363181599826,0.0018458134898583613
167.87511959373438,0.00035984735297463097,0.00023428006849094587,0.0001255672844836851
193.62414798033078,0.012088291728587497,5.0777103031258714e-05,0.012037514625556238
213.24936804224015,0.01494685453758386,0.001597103476480459,0.013349751061103402
231.09525709974073,0.00481416252418126,2.2520234466516208e-05,0.004791642289714744
281.5396745343374,0.003003479589556441,0.0011630860867286312,0.0018403935028278098
313.88741087828237,0.00533736412159678,0.0031620837082209983,0.002175280413375782
377.0045415907537,0.008690505330118272,0.0021095568615834333,0.006580948468534839
412.97425863809184,0.001008775100238824,0.00013105245231536243,0.0008777226479234615
413.1426389397091,0.0004113528363552323,3.035680710051258e-06,0.00040831715564518104
417.96032556288264,0.000533058709375447,0.00011142590600643232,0.0004216328033690147
421.4922535751652,0.0024971855986481726,0.0013297806033239284,0.0011674049953242444
456.71019186278164,0.01309415219522344,0.005979804731100851,0.007114347464122589
490.9325048504665,0.0013763210233317669,0.0002776599469648362,0.0010986610763669307
508.83561251232805,0.016367963611449036,0.007965709603261506,0.008402254008187528
524.8829215839829,0.01181740733378849,0.010280565176823044,0.001536842156965446
537.2325458393976,0.010890617452885479,0.0021464343766806494,0.00874418307620483
616.6742693469904,0.006923041946122259,0.0003935814743399222,0.006529460471782337
631.8781159759034,0.017303461175951676,0.0037598536068831952,0.013543607569068479
634.0799598957244,0.016858989103753445,0.00016465445650363372,0.01669433464724981
645.673759847883,0.08294129576749855,0.07207657615687534,0.010864719610623215
648.0676944400017,0.007720481494510479,0.004893949743451973,0.002826531751058507
678.3584617076057,0.0009079816055506854,1.1248821706563782e-05,0.0008967327838441217
716.4527877589254,0.0005930815056940824,0.0002494500746255058,0.0003436314310685765
723.6127871376166,0.001074743555293337,0.00029467817618888264,0.0007800653791044545
738.9886327825329,0.008831265934362797,0.00583119657468892,0.0030000693596738764
746.1870515105934,0.004810099407483303,0.0025382388483374163,0.002271860559145887
757.6734990226876,0.0051081565468349644,0.0038956296412799925,0.001212526905554972
775.2010986282514,0.0008636135390290393,0.0004641096612243515,0.0003995038778046878
791.9157480024571,0.002529572833577101,1.2072872823086852e-06,0.0025283655462947923
839.1856410416518,0.049818639955025154,0.042089267365245694,0.007729372589779462
851.572691213224,0.04510780494662065,0.03351822712201803,0.01158957782460262
871.0265534330734,0.005170927591547877,0.0005139004332907895,0.004657027158257087
880.5221530275721,0.0019441199491077403,1.598617189878112e-05,0.0019281337772089591
891.1515556941275,0.06782650369820019,0.05740233960203469,0.010424164096165497
920.8704763508981,0.0035167157745024926,0.00020238511950701623,0.0033143306549954766
951.684442560681,0.0007095168007553997,0.0002315263677924327,0.000477990432962967
966.9384193449581,0.003231171843225073,0.0024718238874874843,0.0007593479557375887
992.8902752907886,0.017577880082561902,0.01541003286417103,0.002167847218390871
1011.4115883534615,0.002285466789967854,0.0017372260787930076,0.0005482407111748465
1017.941832199011,0.0006679867395281618,0.00020752906353210712,0.0004604576759960546
1027.4127383587836,0.02489089226349997,0.01809439321696036,0.006796499046539608
1027.468286921525,0.3223250432109622,0.2868032194763841,0.03552182373457812
1032.24068609989,0.0038332615544395755,0.00331902210983289,0.0005142394446066853
1033.8491568579902,0.0005383698401057659,0.00029471714388135464,0.0002436526962244112
1065.1797062494586,0.0808956026582562,0.07101487131894035,0.009880731339315841
1067.1579284103138,0.1464188694386582,0.1287135366397289,0.017705332798929305
1085.0278078889776,0.0011311468779044178,6.365784717352078e-05,0.001067489030730897
1118.6348019762895,0.00104126484127341,6.549050878074999e-05,0.0009757743324926599
1121.142795690393,0.0016393761529884742,1.4169540534627835e-06,0.0016379591989350115
1151.5925233220391,0.006954508624213847,0.0032972684270276085,0.003657240197186239
1177.0064761983188,0.01069796240271136,0.002105263877655354,0.008592698525056005
1178.5098248703757,0.01944269877877283,3.8957042730976804e-05,0.01940374173604185
1199.8321292832807,0.06911296694330422,0.04827476197272728,0.020838204970576944
1208.8364814340614,0.022677950634995548,0.0002998123193718985,0.02237813831562365
1216.7963161894695,0.02687733919088529,0.0005786513598969575,0.02629868783098833
1230.6097970901446,0.009381158822702872,0.0015213936732817413,0.007859765149421131
1244.0459460741372,0.12121614223017546,0.10001198990110864,0.021204152329066823
1247.6962426483844,0.007751435318832616,0.0034317251745381154,0.004319710144294501
1292.8585047784984,0.01314558858275535,0.0005222840887924069,0.012623304493962944
1312.0854355585147,0.0036532806124771225,4.655267401388006e-05,0.0036067279384632426
1322.4707221919996,0.016107046191936144,0.0017123629047990751,0.01439468328713707
1346.5012920163829,0.02273263141280161,8.045467127210665e-05,0.0226521767415295
1366.2478843759193,0.0024090010656414836,6.972163679395831e-05,0.0023392794288475253
1373.2358862427975,0.0025958259107467267,5.9053156589046314e-05,0.0025367727541576804
1387.3017540956505,0.016229802212883594,0.0046011749335060055,0.01162862727937759
1402.8848664774991,0.011573060539761306,0.0029210848487532678,0.008651975691008038
1446.3358396253839,0.011896143195615098,0.00029498326759122697,0.011601159928023871
1459.9035301903427,0.010386246280350495,0.0018567701552501875,0.008529476125100308
1481.3941189806512,0.07983829970320105,0.02619491471902465,0.0536433849841764
1500.296666716733,0.005938939527076594,0.00014664119858506564,0.005792298328491529
1504.105160206165,0.0032512634732464727,1.192697127395838e-06,0.003250070776119077
1543.5744563721562,0.0011151271306116324,7.402423498642136e-05,0.001041102895625211
1544.6925063551178,0.002737223974185844,0.0013506464624142291,0.0013865775117716148
1662.5774706778109,0.048026912061146676,5.447829924495403e-06,0.04802146423122218
1663.178599067615,0.039954158784475724,2.1043228745830986e-07,0.03995394835218827
1680.0868110702866,0.1260120181119581,0.009747805434365653,0.11626421267759245
1683.7024504734993,0.15957676898332915,0.025353937593095337,0.1342228313902338
1777.564249597807,0.013241426063875494,0.005547387988048482,0.007694038075827012
1817.788473519623,0.044202748372600284,0.014364114526585472,0.02983863384601481
1841.7149787737824,0.20358476255634794,0.16705664317809274,0.03652811937825522
3130.462558208676,0.520281949819992,0.5011346829774884,0.019147266842503508
3142.816707768371,0.29435714546424613,0.20645626129031075,0.08790088417393536
3184.818506856919,0.08797795294494923,6.000745083400645e-05,0.08791794549411522
3193.762073826923,0.2245228875162512,0.004003522994090921,0.22051936452216028
3199.063298019612,0.15282461915972867,0.0036735246906314007,0.14915109446909727
3203.5793813077175,0.4996068744464558,0.00014002916409988349,0.4994668452823559
3206.2884160292883,0.43510770456356446,0.006927695586502316,0.42818000897706215
3213.938259923611,0.2180879930235212,0.08064338160424264,0.13744461141927855
3215.0709148296196,0.18413074525167963,1.3308217590142819e-05,0.1841174370340895
3221.597999154292,0.05000719002314462,0.04058130360585514,0.009425886417289473
3222.247974530882,0.04695200134330738,0.0029944539144431443,0.043957547428864235
3225.12456632419,1.3706875228555355,1.152251073128238,0.21843644972729748
3228.4593633822697,1.5910104784779362,1.3117260381407714,0.2792844403371647
3635.067948816094,0.34400777962631385,0.21634794086886835,0.1276598387574455
