frequency_cm1,total_intensity,isotropic_intensity,anisotropic_intensity
1.8879977609033165,0.0,0.0,0.0
0.7991433691639739,0.0,0.0,0.0
0.795387941406074,0.0,0.0,0.0
2.5381695484224888e-05,0.0,0.0,0.0
3.0100870729105764e-05,0.0,0.0,0.0
3.390188579543427e-05,0.0,0.0,0.0
18.381313497663868,0.01067085102819105,4.528211190049852e-08,0.01067080574607915
30.94186549784737,0.002088698787111783,1.0095739501322132e-05,0.0020786030476104608
37.772550011307665,0.0006684945827976475,2.1474370140308976e-08,0.0006684731084275073
46.76433160963287,0.004773525718200116,2.7554160080336285e-08,0.004773498164040036
73.44259804271941,5.561582402669288e-05,1.2066267292080195e-08,5.5603757759400796e-05
97.25169211039986,0.0006461763171530697,4.138956456838254e-05,0.0006047867525846871
98.1624922591099,0.0002784614999936474,6.328613181937697e-06,0.00027213288681170975
106.99663558066686,6.46126493094434e-05,1.3523553772273962e-08,6.459912575567112e-05
155.36963064722204,0.0002948534243116764,8.016506274901187e-05,0.0002146883615626645
157.3914723769487,0.009585100536061743,0.007318931622252618,0.002266168913809125
157.63062764324857,0.004677778591396943,0.003559297662692583,0.0011184809287043602
182.13360387631903,0.0024528588611232582,0.001697407468710332,0.0007554513924129261
245.9244085458686,7.346977505576148e-05,5.4252129743195926e-08,7.341552292601828e-05
250.08240610824734,0.009480536128674772,1.359823652701579e-07,0.009480400146309501
265.6350562452904,0.001590584427607439,0.001152465922276818,0.00043811850533062113
277.7457030258796,0.006914299910119576,0.0028824881438554184,0.004031811766264158
325.1008904335684,0.005792905592651392,0.0017113568273103763,0.004081548765341015
414.8650030149656,0.009117107017768052,0.00667707486496178,0.002440032152806272
418.1106471400179,1.10368278814899e-05,4.1701066746892695e-07,1.0619817214020973e-05
429.109397088314,0.007140669546160478,0.0028599530299876956,0.004280716516172782
466.88123224369116,0.000441622693375055,3.80428087472944e-09,0.00044161888909418024
488.49977564892833,0.0012617274252115303,0.0007677812396779104,0.00049394618553362
520.2392269736589,0.0022432727817302935,0.00016238997990496048,0.002080882801825333
577.3244240168067,0.0006387843189731359,1.799540808065352e-08,0.0006387663235650552
642.2655708670321,0.030291020170815294,0.0006987555914631198,0.029592264579352174
709.3578748365846,0.027878231996941845,0.025018005226034794,0.0028602267709070517
728.7951781026004,0.0007506874328036221,9.863324411991699e-07,0.000749701100362423
731.8194971910476,0.00033683016067882646,1.6234970176543093e-07,0.000336667810977061
742.2863696513579,0.0006350828928520076,2.5636495736454195e-07,0.000634826527894643
775.669145486773,6.92721324412569e-05,2.171527529796004e-06,6.71006049114609e-05
814.6207592490473,0.11458303990855426,0.10017419856957442,0.014408841338979843
831.5715127691255,0.0002478806206334862,3.0299013483702254e-08,0.0002478503216200025
860.7089747957552,0.0009142524955508601,3.0230173574251945e-07,0.0009139501938151176
872.5841808534916,0.0001508227773884126,1.6927094007905253e-07,0.00015065350644833354
909.3709484945845,0.022224369072452628,0.012437673632105916,0.009786695440346712
928.3119761353124,9.010603473105407e-05,1.960638666735552e-06,8.814539606431853e-05
997.100873541489,5.076738053614807e-05,3.7445041959495006e-08,5.072993549418857e-05
1000.4093430228952,0.00800539449875243,0.0037279382991669196,0.00427745619958551
1015.8822048963522,0.0006957621112870998,1.5714858591659864e-06,0.0006941906254279339
1021.8481452305048,0.00040301621832344647,1.6261236309805179e-06,0.00040139009469246595
1030.7743952352828,0.0028319912991068468,0.0005729450152502048,0.002259046283856642
1042.6410385164709,0.009956153056706876,0.0005758346994392463,0.009380318357267629
1057.37616613166,0.05150145995886406,0.03308829787624326,0.018413162082620792
1077.8850612631154,0.012170057048794038,0.0022342135457185455,0.009935843503075492
1090.1112655617096,0.04496705668060642,0.0005558730069056501,0.04441118367370077
1096.2398426239176,0.018208172233921134,0.01156782123047795,0.006640351003443185
1114.1480326923074,0.2030234267187368,0.1494970398336587,0.05352638688507809
1123.8622426477484,0.005009889182262289,7.936775740188719e-07,0.005009095504688269
1138.0569967714255,0.028820405330773215,0.01871697171651874,0.010103433614254477
1150.2495254579237,0.2221088677531211,0.14418191120226337,0.07792695655085774
1206.3143981413791,0.10988505227907173,0.0802733903208419,0.02961166195822984
1214.924694396958,0.0044189704440108215,2.659902505305191e-07,0.004418704453760291
1223.3371741191584,0.09779340968681526,0.050671925125172775,0.04712148456164248
1257.908643564352,0.12072658634202896,0.0730126069947953,0.047713979347233655
1261.5405429881685,0.002492204602691698,1.1139595913716863e-05,0.002481065006777981
1300.8018275523038,0.009705893932093005,0.006957096522905162,0.0027487974091878428
1304.8331522013157,0.0005345332364891473,1.3468490835785714e-05,0.0005210647456533615
1307.817587662973,0.04260688994957522,0.027187729038815923,0.015419160910759297
1326.5596322223284,0.07364969177158301,7.991358433185389e-08,0.07364961185799868
1333.2395975322163,0.018164340283650757,0.0012547242436084995,0.016909616040042257
1333.9669130333348,0.01484996822709683,5.657218033740954e-06,0.01484431100906309
1336.622527917646,0.0007686750299167143,3.275387535833968e-07,0.000768347491163131
1355.6755436913513,0.023032197844522775,0.010679158971987183,0.012353038872535593
1393.5858029540962,0.004310968322998121,0.0023597893440592704,0.0019511789789388514
1412.2542976913726,0.0005072786696883844,0.00014979649836213067,0.0003574821713262537
1415.458914411643,0.003470542472583611,0.0012444560790641137,0.0022260863935194978
1421.8631575843606,0.00879645305795429,0.003317471475905786,0.005478981582048503
1444.2143679554356,0.023638334381035825,0.01397876506840971,0.009659569312626116
1458.8338811290785,0.009349598868477388,0.0011316105500121113,0.008217988318465277
1481.8694066894006,0.0005992502529793137,0.00043872497274588686,0.00016052528023342686
1482.6083128260802,0.06634573689836805,0.004953032616763938,0.06139270428160411
1486.6822015142411,0.06822218027967612,0.004013865360341364,0.06420831491933476
1493.039134002629,0.0019925351949595057,0.0002485575911325872,0.0017439776038269184
1494.0065636589075,0.027798218353413784,5.902384481607644e-07,0.02779762811496562
1500.9126608760755,0.0056559346788878275,0.0004775808355258686,0.0051783538433619585
1505.9077651613366,0.00371308451478871,0.0005513433371893088,0.0031617411775994014
1537.9835681591458,0.0436034722125508,0.026333185578788543,0.017270286633762257
1646.266362992506,0.044286741581303635,0.013886476309886396,0.030400265271417235
1667.7564951490936,1.0056084571718213,0.24455980587721976,0.7610486512946015
1789.0696242467416,0.37286745016620976,0.2394706418272805,0.13339680833892925
3022.0951556824652,0.03151053270550582,0.02841773675221363,0.00309279595329219
3024.3743289419126,1.3758855057483064,1.336849509728351,0.03903599601995541
3033.181744346677,0.07325196476949275,0.06449557223564346,0.008756392533849288
3038.9826617283984,0.7214523666389182,0.7130289052135541,0.008423461425364051
3042.0362296024578,0.4496757603503517,0.41384927890866385,0.03582648144168787
3045.886856285385,0.7683123348714994,1.4879319672707148e-05,0.7682974555518267
3050.3427822125277,0.9240461024861611,0.9139805079275741,0.010065594558586969
3052.675694048869,0.004155314709548206,1.0614034233022542e-05,0.004144700675315183
3065.36740344568,0.32992977426164,0.31604933932401513,0.013880434937624846
3070.1128105222538,0.29479514307917815,0.00017433982470546332,0.2946208032544727
3072.8529891140674,0.005099001381592091,3.128644916362128e-05,0.00506771493242847
3084.8691762631984,0.06003967021738823,5.532067080428702e-06,0.0600341381503078
3108.777394024001,0.05745123460787644,2.2697200414346292e-05,0.057428537407462094
3113.371568111686,0.12172690089444439,7.186939645737917e-06,0.12171971395479865
3121.797852830336,0.4224106424164798,0.06635942646404634,0.35605121595243344
3215.4178211940625,0.1469289778815976,0.01808337754617274,0.12884560033542486
3218.910749834103,0.19846280811504455,0.0014951386754768284,0.19696766943956773
3231.5084020146674,0.03267911500287801,0.0001117634594039968,0.03256735154347402
3233.3071448985083,1.0131935800616583,0.7584081713910865,0.2547854086705717
