frequency_cm1,total_intensity,isotropic_intensity,anisotropic_intensity
1.4456261019668872,0.0,0.0,0.0
1.053682559927213,0.0,0.0,0.0
3.6438991137202576e-05,0.0,0.0,0.0
2.902107656658372e-05,0.0,0.0,0.0
1.3597184777761255e-05,0.0,0.0,0.0
1.3968444421164468,0.0,0.0,0.0
35.03186510221129,0.00032116920897509754,1.3518208763071741e-09,0.0003211678571542212
42.444548945005884,4.9472870358455585e-05,2.1998845515098634e-10,4.947265037000043e-05
64.36257106523593,0.00015787919452616865,7.1310719778200875e-09,0.00015787206345419083
71.0363860302943,0.0002386984521801511,8.873544083815963e-10,0.00023869756482574272
123.62792867569706,0.0070844123458573246,2.0223468036467944e-09,0.007084410323510521
134.35899284637455,0.004046312580172155,1.791053146768289e-05,0.004028402048704472
140.57630390369312,0.01377355348671327,9.107101547528942e-09,0.013773544379611723
154.55377058198198,0.0030593262935302303,6.488607122699195e-07,0.0030586774328179604
163.94162909401766,0.00015218045517046975,4.014538585194834e-08,0.00015214030978461782
199.72046014373598,0.0009141207427115268,6.261160492989963e-08,0.0009140581311065969
201.69957654781126,0.0009291668337321029,4.256418997862037e-05,0.0008866026437534826
227.94086800527677,0.00016706811489210983,9.501853050477635e-07,0.00016611792958706208
236.81689370515335,0.0006373782469329033,0.00012141879858049624,0.0005159594483524071
251.0548197016659,0.026509444691282857,0.01995220919937868,0.006557235491904178
258.46319350848677,0.003621502399563986,1.5077758155935559e-05,0.0036064246414080504
262.3133152114321,0.0034007254085663373,0.0003221401326158483,0.003078585275950489
269.1964748808376,0.0014680946715875452,0.0001645412795304153,0.0013035533920571299
288.4360577940763,0.0012351162901782994,4.99927453717288e-05,0.0011851235448065707
288.79484298422653,0.0038852355256324012,0.0006048633423037852,0.003280372183328616
317.9947786818606,0.009340867040969689,0.0019211173150059555,0.0074197497259637325
327.40022467813964,0.0008547925433457931,2.5002434985947897e-06,0.0008522922998471983
336.73389868828025,0.011187867062429838,0.00995141076894423,0.0012364562934856073
345.78565637824113,0.00024475623860425197,3.821355027974076e-05,0.00020654268832451123
353.5008232948482,0.0012143773455856113,8.744519597128574e-06,0.0012056328259884828
361.27206166760874,0.0003415101655385815,4.057320665385266e-07,0.000341104433472043
369.13033142680524,0.0005008361196746547,1.3208882173201265e-07,0.0005007040308529227
377.6938615201188,6.9949986585573e-05,3.1070971845665565e-09,6.994687948838843e-05
380.4652347510727,0.0013624694371371414,0.00039408450760980223,0.0009683849295273393
390.17810340101676,0.00435733043090544,7.659001773711788e-08,0.004357253840887703
410.2561591802623,0.0004818945536042467,0.00021487400984329273,0.000267020543760954
415.1755362993285,0.0002350654164823075,1.9182846755801395e-08,0.0002350462336355517
430.6917601544201,0.002957899036174228,1.0098628363013491e-07,0.002957798049890598
448.5958177681204,0.0031997679752154146,0.00034163244564412753,0.002858135529571287
471.4958053269434,0.0038162351345488,4.118307626599932e-05,0.0037750520582828006
471.9124513097416,0.0010384405968737738,3.5948485115352816e-10,0.0010384402373889226
513.6067888891212,0.009410166784062588,0.0021447965513102358,0.007265370232752352
547.2761440995946,0.006099384758323362,1.763395398414658e-07,0.00609920841878352
567.829575819147,0.13030549980067654,0.1272810810550524,0.003024418745624154
640.2957839536436,0.0017841760786380613,2.052281988935719e-08,0.001784155555818172
640.821804466123,0.0010564494496769642,2.073185586797415e-06,0.0010543762640901667
670.2802640713934,0.0005214530696159552,1.5458231807126924e-06,0.0005199072464352426
740.4155336092849,0.01976666130143231,0.018506011785527524,0.0012606495159047878
776.9973470231462,0.006526387527384987,0.00012099653623883957,0.006405390991146147
808.4599633645245,0.0011486181211583628,1.1695212365420123e-07,0.0011485011690347087
835.2567637034628,0.02771193191514106,0.014354906017767875,0.013357025897373184
846.4879541910996,0.14064830121968266,0.13436161669916674,0.006286684520515931
915.5809472569413,0.0009849601758808578,7.053474173302096e-06,0.0009779067017075557
922.8803548410712,0.0008178728441126301,7.270023678229371e-09,0.0008178655740889519
940.5834010419453,0.02410656217535653,2.0142291814448007e-06,0.024104547946175083
943.9341038262055,0.015808308969354885,6.9276532738132516e-06,0.01580138131608107
946.2385186825265,0.027011666245428615,0.0056041513813126125,0.021407514864116003
946.3705348368492,0.026215655668686305,0.008250230448267443,0.01796542522041886
952.3177070049995,0.01947448044778231,0.0007942709420497802,0.01868020950573253
952.4211224477884,0.009580934107339602,3.329849574367094e-05,0.00954763561159593
954.6166087467288,0.0026580181519374664,0.0006098495586945265,0.00204816859324294
956.7655202462169,0.028431129522604633,0.004378099933454485,0.02405302958915015
962.7901112510826,7.670473131020047e-05,2.557963979468341e-07,7.644893491225364e-05
965.969935989501,0.0001516101578113171,6.498863463003249e-09,0.0001516036589478541
971.7966259551242,0.00039589462000719,5.136560554490862e-09,0.0003958894834466355
1043.7495782524127,0.00678412586667572,0.0004988704251972559,0.006285255441478464
1047.1871549563457,0.004780250723568025,0.0003112655785481009,0.004468985145019924
1050.1140503697497,0.007892344767467129,0.0002074429036462985,0.007684901863820831
1051.5751889840376,0.0061484141361040304,2.098059438770688e-09,0.006148412038044592
1056.2392563313003,0.006675535124229507,1.7896906870126207e-08,0.006675517227322636
1057.6978427680872,0.009530205977689124,1.7323950178867786e-08,0.009530188653738945
1151.6437907870938,0.016440988739079062,0.01302824147916437,0.0034127472599146907
1173.5677064886052,0.027650095856569974,0.016642540677772568,0.011007555178797404
1185.8713511299413,0.020874809273522782,0.009666893480444855,0.011207915793077929
1221.2134816677756,0.02459567224417474,0.00018040754534304679,0.024415264698831693
1236.2222166614113,0.04484839156981224,4.9738607839984176e-09,0.04484838659595146
1241.5334000748485,0.03327868865723841,0.0026169939628827147,0.030661694694355698
1242.3604921766723,0.026217185951794918,1.8564330870980466e-06,0.02621532951870782
1242.7667434339303,0.05810092574318662,1.6127780405797856e-07,0.058100764465382565
1245.7571083240605,0.020766538237191434,0.00018222237960361363,0.02058431585758782
1280.1515062770184,0.03322277940931593,0.022417776646595233,0.010805002762720695
1285.3596268511374,0.014206751579799145,0.00023420658572518294,0.013972544994073962
1287.7959845247435,0.01322409678998821,0.0006029070546790942,0.012621189735309115
1300.608158784632,0.01183969896484004,0.007633009190670448,0.004206689774169593
1348.292298595325,0.005267513771857678,0.002538955055096846,0.002728558716760832
1349.635856945252,0.060817961623372385,0.052733812844258786,0.008084148779113601
1395.0336643188714,0.0017360194216121236,1.9687029373945322e-07,0.001735822551318384
1396.3440399005867,0.0038177383579225694,0.0010312007551946513,0.002786537602727918
1396.4079590797592,0.0007887869974146049,9.640382543012551e-05,0.0006923831719844794
1398.4966442021087,0.001703245163664689,0.0004688925961698176,0.0012343525674948714
1400.865200371006,0.002519968679602338,0.0005576323029519535,0.0019623363766503843
1411.7630239234918,0.001020822179109457,3.796087548030791e-08,0.0010207842182339767
1425.7023968792316,0.005044542973393568,0.0015879845922557667,0.003456558381137801
1426.701167437805,0.0023713887365580085,0.0012355892546991102,0.001135799481858898
1436.5902865753583,0.0031507185616273525,0.001962174179388669,0.0011885443822386838
1471.0610466161515,0.0029175624984910213,3.672268401685215e-05,0.002880839814474169
1475.947642451308,0.005531661374805281,2.7745880168610396e-08,0.005531633628925112
1476.7264615512672,0.013036184095596202,2.9095226855857595e-07,0.013035893143327643
1476.9133963125664,0.00915005961092819,2.301257644704745e-08,0.009150036598351743
1481.7073143864786,0.022689315226941807,1.8542352698409113e-06,0.022687460991671966
1483.0318580095689,0.022438027100661555,0.002874877636953228,0.019563149463708327
1488.16835978718,0.03078649532975097,4.890238235793412e-05,0.030737592947393037
1491.306457831697,0.016248098801983964,7.203595845244854e-08,0.016248026766025513
1492.4551188756973,0.041241277571347164,7.634490846518283e-07,0.04124051412226251
1492.945883347663,0.02139047139770948,1.4036598556493411e-08,0.021390457361110924
1497.1680217373225,0.034376918067379504,0.0002558843409918277,0.034121033726387674
1499.3155772226944,0.022788456536897643,0.003535762955517618,0.019252693581380025
1501.9619171026575,0.021281488346901755,6.422827551544631e-05,0.021217260071386308
1503.7202121711675,0.017504880197947374,4.540777882288959e-06,0.017500339420065084
1505.6306719733234,0.038196716452737305,1.2692778425466995e-07,0.03819658952495305
1510.7138283915133,0.012631699476818654,4.350247957140127e-09,0.012631695126570697
1516.2275269899205,0.01755443494291007,0.015430179227638258,0.0021242557152718116
1520.5854477288672,0.015909258129520445,0.011330432824066157,0.004578825305454289
1523.7361711174349,0.018326153173590855,0.004708156183614097,0.013617996989976759
1527.7042262290515,0.008836812165323518,0.005310547978965059,0.0035262641863584594
1669.2933275837545,0.04288167886579765,0.008070304471438677,0.03481137439435897
1682.7167655687833,0.09643476564357378,0.00280480008506032,0.09362996555851347
3051.7440575314445,0.04253011429411638,0.011673787843267298,0.030856326450849077
3052.3771540313105,0.11898882405182767,0.09183088656510702,0.027157937486720653
3054.557778049608,0.028644177017510156,0.0003066369017988965,0.02833754011571126
3055.1359267004686,0.07036449371083739,0.028710797656641352,0.04165369605419604
3057.859439254907,2.233656565039821,2.112709506052018,0.12094705898780322
3059.333385225475,0.016388686485552355,0.004511769512692216,0.011876916972860137
3060.228325457027,0.030796962754993593,3.679031933196325e-07,0.030796594851800273
3061.5044412276557,2.181125949212425,2.047222264112511,0.13390368509991363
3065.9692503744436,2.7665470531308674,2.6518478644185723,0.11469918871229497
3110.772246429247,0.06044155139234312,4.586986299561051e-07,0.060441092693713165
3112.8007387832045,0.28584394484360176,0.0032525364081764526,0.2825914084354253
3116.4636397777363,0.03980451158613278,0.00018937657907083517,0.039615135007061944
3116.8879758799585,0.06962508171535484,0.004983845426606241,0.0646412362887486
3122.7994589899654,0.11525452895204272,0.00016344825459723133,0.11509108069744549
3123.083212717296,0.8850564072152622,0.012866656413317083,0.8721897508019452
3124.179294833974,0.5740579356723521,0.05574484425776311,0.5183130914145889
3124.233862777709,0.23465659017905843,0.009926769639446059,0.22472982053961238
3125.6488252222734,0.053619385872512915,0.006244420510943186,0.04737496536156973
3126.7982437367314,0.020086431662348494,9.188055703971847e-06,0.02007724360664452
3129.6184841231016,0.13176110268637048,4.420996273380141e-06,0.1317566816900971
3132.2583411460214,0.24229672534478236,0.00015443140673874572,0.24214229393804362
3132.95887094005,0.7659356775022932,0.015085543527921045,0.7508501339743722
3133.8446976271307,0.01213238755693104,0.00011392484259971425,0.012018462714331326
3137.841143974432,0.2546911159469605,0.008263094853678314,0.24642802109328218
3138.653542506325,0.24330795149727444,1.3117548453349087e-05,0.2432948339488211
3175.6169745665316,0.043709077139212835,0.0002406581102035557,0.04346841902900928
3177.7435232105868,0.2773110443281346,0.05512313956995604,0.2221879047581785
3238.477428834098,0.19832774857598073,0.12935862911430232,0.06896911946167841
3267.4159269909665,0.2369742286643399,0.1742410312785883,0.06273319738575159
3917.169280099886,0.32960170906693026,0.2536395352045424,0.07596217386238785
