frequency_cm1,total_intensity,isotropic_intensity,anisotropic_intensity
5.74013644912508,0.0010774680910516034,5.131661627889717e-07,0.0010769549248888144
2.2586291642642572e-05,0.0,0.0,0.0
1.0412711315471529e-05,0.0,0.0,0.0
2.3298685570393176e-05,0.0,0.0,0.0
0.4157906446743438,0.0,0.0,0.0
0.6223908910539985,0.0,0.0,0.0
1.865568788892213,0.0,0.0,0.0
14.44604323899539,0.003351283927178191,1.7512486380613494e-06,0.0033495326785401296
17.276882994612404,0.01088591371664227,6.879297522719216e-05,0.010817120741415078
25.313033145033483,0.0011275036732335771,3.401697047425739e-05,0.0010934867027593198
36.80244246601095,0.007983353875461181,0.00017779697098381988,0.007805556904477361
38.4612529515048,0.0007511721416601961,3.899965940329793e-06,0.0007472721757198663
53.135670460767145,0.004707462791276394,0.0004397269368099206,0.004267735854466473
56.473928339884125,0.005084067674572655,2.410497841467801e-08,0.005084043569594241
64.43590419128448,0.00027675856182958426,1.393043971786772e-05,0.0002628281221117165
97.06608169581021,0.0021182948363018873,0.0003193104891341092,0.001798984347167778
100.43332124759054,0.0018986950984692056,5.806659430505862e-05,0.001840628504164147
111.71127937143144,0.0010210057018303575,4.0455040318573395e-05,0.000980550661511784
115.92951962882168,0.0009548390722139672,2.0165920157750944e-08,0.0009548189062938095
127.62091653058137,0.002692243077291579,0.001478762220663344,0.0012134808566282348
131.5292721321254,0.002186381571976011,0.00057176364598825,0.0016146179259877611
145.17824562819752,0.00570654943871653,0.003958666932253677,0.0017478825064628535
160.89256240811983,0.0019145641914081447,0.0002550143411098852,0.0016595498502982595
163.2158148606285,1.1458133881778452e-05,3.8094868214754744e-06,7.648647060302978e-06
176.33021780928433,0.0032582197122289045,0.001542406388922653,0.0017158133233062514
195.01668521958578,0.005566268117954504,0.000281897253737751,0.005284370864216753
245.98172777120755,0.003838470684659587,0.0012661982650987325,0.0025722724195608544
246.26303718334827,0.00021847526911186627,9.61856590137052e-05,0.00012228961009816107
287.45988983833234,0.008876554342272053,0.001558187714735533,0.007318366627536519
322.2210109463404,0.005104377997949418,7.471848038178349e-05,0.005029659517567634
323.758235087225,0.00746212634608934,0.0006051211735076586,0.006857005172581681
351.52094825911263,0.005993535382197103,0.0037543263286531664,0.0022392090535439365
392.5729832379241,0.0056489701165482725,0.002887460126099917,0.002761509990448356
396.81046518741107,0.00020419949933954314,2.3409365260007725e-05,0.0001807901340795354
453.6044930345305,0.0015260598584272468,8.856425749661056e-05,0.0014374956009306362
471.49661919630205,0.0038600222626075193,0.00011732931847080508,0.0037426929441367143
495.22949067676166,0.018931544252251326,0.00028224469884202815,0.0186492995534093
518.7011439127078,0.012190590782135826,0.0001121165347659241,0.012078474247369901
521.7122698841569,0.005920543398558678,1.8378817393964156e-08,0.0059205250197412835
544.4389915103449,0.0897277945985761,8.682333650847518e-05,0.08964097126206763
568.1172573385179,0.07277416077066569,3.960689625619213e-09,0.07277415680997606
639.3442454806507,0.0150842623924133,0.006632826609581468,0.008451435782831833
652.9673506497771,0.0034620615161480494,4.40022015396848e-08,0.00346201751394651
673.6638757190816,0.04500011126630182,0.0016178027029104935,0.04338230856339133
730.308345247253,0.0006118015750090513,7.627266395481091e-08,0.0006117253023450965
731.5425535843461,0.0017609691819033782,2.3294180779529937e-06,0.0017586397638254252
734.633393938442,0.0011921806789751393,3.434063966224909e-06,0.0011887466150089143
752.2249963906997,0.0012661164835821603,3.6988506394360564e-06,0.0012624176329427243
756.590240605373,0.0018010601761903982,7.63190760850177e-06,0.0017934282685818964
794.8730252837395,0.002291923914923715,3.77291338921279e-06,0.002288151001534502
845.0855576945871,0.0037411517977664725,9.375647975978291e-06,0.0037317761497904943
859.0738781234769,0.0010394664605731805,8.511553008693644e-06,0.0010309549075644868
892.1899876377202,0.05193640954715398,0.044011627734718436,0.007924781812435538
908.6412179453209,0.03569412776290816,0.022944839629961654,0.012749288132946502
937.453876565762,0.0016534557406704406,7.018507444089401e-06,0.0016464372332263512
967.7991898783426,0.0038376927643307903,0.001747767634089971,0.0020899251302408193
973.3121003524925,0.001472842104974003,7.019050002204753e-06,0.0014658230549717984
1016.3654626853785,0.030996944116240804,0.015034771924428699,0.015962172191812105
1019.2377548777841,0.0010009044866219272,7.984529522696564e-05,0.0009210591913949616
1026.968058466927,0.029721720489941664,0.006401024259069025,0.02332069623087264
1035.707956530059,0.0014120670480893445,0.00016089091723555749,0.001251176130853787
1056.659721794222,0.02366740568040203,0.010588514802841368,0.013078890877560662
1062.2851716014975,0.015359460575217677,0.0038566462414696,0.011502814333748078
1077.5446783883674,0.021650667397006846,0.005715895695168856,0.01593477170183799
1087.626730917431,0.05516758705677974,0.010855236326150434,0.04431235073062931
1089.191366275378,0.013837853000941005,0.0044570809955139,0.009380772005427104
1090.5334524292764,0.04941249869641208,0.0003717856226222673,0.049040713073789814
1121.8641013629233,0.19679064090922907,0.10495661542355716,0.0918340254856719
1135.548876977007,0.005673642627546945,1.3857515336938002e-05,0.005659785112210007
1137.6609570222993,0.003841756756732713,1.1159451964503516e-05,0.0038305973047682096
1139.3567847472418,0.09908824875691671,0.056805919494076984,0.04228232926283973
1149.8095657908323,0.002436688382579081,2.876010277779234e-06,0.002433812372301302
1163.4152176420935,0.050238445036859605,0.030622326906156436,0.019616118130703165
1229.2817544678833,0.006076283696739508,9.721839954844708e-06,0.006066561856784663
1229.3254160436497,0.0015510673115548773,2.8244818312920555e-09,0.001551064487073046
1232.5247993697321,0.0037889331845219376,9.483484803306371e-08,0.0037888383496739045
1247.6410015849735,0.10092747834300442,0.021675229273573998,0.07925224906943042
1263.1345336728896,0.013993208468694361,0.004108729579732122,0.00988447888896224
1271.8330406570049,0.03882988597681404,0.009268031612562795,0.029561854364251246
1272.669364979606,0.000846654434108845,0.0001268874438648004,0.0007197669902440446
1293.7811569574121,0.003692795067039639,2.039743164477985e-06,0.003690755323875161
1298.7282468660414,0.00895988734150191,0.00036882093107311597,0.008591066410428793
1305.119593159396,0.007914283848800557,1.9738097648326096e-06,0.007912310039035725
1325.6636510341782,0.0006982835646216343,1.6871219057756908e-06,0.0006965964427158586
1328.3430656947469,0.0963204483510832,8.72261817727593e-07,0.09631957608926546
1329.0125039605782,0.00589512448982349,6.330118601496573e-05,0.005831823303808524
1330.0966222416548,0.013655813709935924,6.978917461077134e-06,0.013648834792474846
1333.564054712094,0.03475360199380599,2.4316068849553473e-07,0.0347533588331175
1337.4774729539172,0.0002988646824565743,1.661571546671089e-05,0.0002822489669898634
1337.6227318002384,0.005973730659888401,0.0004266189087900213,0.005547111751098379
1338.253881783434,0.0006691171196479141,8.781061936265579e-07,0.0006682390134542875
1366.291595760215,0.019460154846556575,0.002438896384098303,0.01702125846245827
1389.2673331306287,0.02187282010600804,0.004327985639679146,0.017544834466328894
1395.411226137825,0.0864512409898248,0.027982363578447755,0.058468877411377046
1413.0463722905006,0.02212941204140266,0.0016590299964443249,0.020470382044958334
1413.7677316457,0.03937359462556827,0.014951018258178841,0.024422576367389426
1415.2099920677451,0.0175227784169586,0.0024973603365868605,0.015025418080371737
1421.9616244063998,0.0038880051681286923,0.0006279208571078819,0.0032600843110208106
1435.0591266226975,0.004360508096781789,0.00036611616054354,0.003994391936238249
1457.7370417314953,0.018278452792734094,5.269984219506956e-05,0.018225752950539024
1469.7530115896293,0.04367026564078663,0.00026873774647371066,0.043401527894312925
1470.5136268300218,0.04902538654461869,0.008493643793463857,0.04053174275115483
1481.3254844398505,0.004508642450425652,0.002894099822188322,0.00161454262823733
1481.8015956886668,0.07109737470271749,0.004145323048695268,0.06695205165402222
1483.6101937035978,0.09048904457829202,0.0079268474113697,0.08256219716692231
1486.1102505370088,0.09526220194361523,0.017609564658535134,0.0776526372850801
1486.6414804996255,0.010371122130428095,0.005354438349517988,0.005016683780910107
1492.0138871393553,0.007251330527429885,0.003672525611187689,0.0035788049162421964
1494.5636880020475,0.028373704429925855,3.656522291532921e-07,0.0283733387776967
1496.2652534306085,0.015141893527041015,0.004780155818239926,0.01036173770880109
1500.408499913317,0.007416144882576763,0.004101549032426366,0.0033145958501503967
1505.0944285988976,0.009321414935199153,0.0016111101036029676,0.007710304831596185
1505.5937055258198,0.002296126110778491,9.679839240397291e-05,0.002199327718374518
1839.4521777873379,0.04995125004004805,0.030392586518972756,0.019558663521075298
2308.327217650238,0.01419837426109905,0.00022184795031932755,0.013976526310779723
2436.568665763822,17.477408791794645,8.047863313640171,9.429545478154473
3024.1205686728104,0.08920503403337067,0.08465196609633485,0.004553067937035812
3025.547494754083,0.6252790739942606,0.5822333271228737,0.04304574687138691
3026.66840465352,1.6524665380648125,1.6267607641899242,0.0257057738748883
3028.7271159453544,0.11095746112041029,0.107057355083695,0.0039001060367152888
3038.342423505903,0.00680324974778261,0.006014630241531895,0.0007886195062507147
3042.1959281612726,0.26706321754844325,0.23937671947722575,0.027686498071217484
3046.97815147123,0.09056223446952424,0.002173028256037186,0.08838920621348706
3047.2949984476763,3.103633461092882,2.8879855319715846,0.21564792912129754
3048.170161840342,0.8008240283921296,4.110876211217714e-06,0.8008199175159184
3051.33476098835,0.929109684684289,0.9190111136161577,0.010098571068131282
3053.7319710242346,0.5706413704371273,6.314668865942778e-08,0.5706413072904386
3053.805317735801,0.013761940930960094,9.368179185226351e-06,0.013752572751774867
3060.3865611083143,1.0221788060163863,0.9793626401636407,0.0428161658527455
3061.384915823759,0.06756299758470696,0.027403759801786234,0.040159237782920736
3061.814245190771,0.10341673409165245,0.05526626891803818,0.04815046517361426
3067.1141119563117,0.14645681204924071,7.512486825548354e-06,0.14644929956241517
3069.286977606275,0.04220598428254494,0.03633169868306114,0.005874285599483801
3076.2725746990986,0.06795925973817019,2.212807290228028e-05,0.06793713166526791
3078.5598951577176,0.27379391729544406,3.577972665193776e-05,0.27375813756879214
3081.477868655458,0.40724451781223114,9.49819334326489e-05,0.4071495358787985
3085.0774444972462,0.11347830383450752,9.769316644669533e-06,0.11346853451786285
3092.876821404388,0.21508285533623672,3.1015044794568685e-06,0.21507975383175726
3107.1429709454715,0.020554570551443604,8.340507267323294e-05,0.02047116547877037
3107.6400794446336,0.017927928096819437,6.989149439158628e-05,0.01785803660242785
3112.4412093224832,0.004029029696754432,1.9827394117549647e-06,0.004027046957342677
3114.9628872754815,0.14216585008463073,3.936956075954998e-06,0.14216191312855478
3123.77535861461,0.41764605477120953,0.06388625204996923,0.3537598027212403
3798.2565498504614,0.49032218863621346,0.30460707790796204,0.1857151107282514
