frequency_cm1,total_intensity,isotropic_intensity,anisotropic_intensity
1.9538654465596492,0.0,0.0,0.0
1.6598681627763419,0.0,0.0,0.0
2.3101603712041707e-05,0.0,0.0,0.0
1.665542096790208e-05,0.0,0.0,0.0
1.8276196162704193e-05,0.0,0.0,0.0
1.8879689520269043,0.0,0.0,0.0
17.42090851017672,0.002382355665985545,8.155985582570202e-05,0.002300795810159843
29.111520185158877,0.00012987224165562287,3.7466742386359333e-06,0.00012612556741698695
40.939014654888965,0.00136410397662655,5.2280895271595215e-05,0.0013118230813549548
43.773234163438545,0.0013160931370143926,6.821881898409211e-06,0.0013092712551159833
65.34298626730771,0.0006209683956829444,4.035541279225748e-05,0.0005806129828906869
72.26700334804298,0.0014210841259955872,1.2010780596221642e-05,0.0014090733453993656
105.5156736611945,0.001714598645766572,0.0002945964442710901,0.001420002201495482
106.19880747110635,0.0006166565454462689,4.124689809386637e-05,0.0005754096473524025
113.64653125024053,0.0014773021902075884,6.260078904567875e-06,0.0014710421113030205
130.0371598737135,0.0008187492935039713,0.00031147636064076664,0.0005072729328632047
183.53602083994872,0.0016280721080470253,9.430004248378425e-05,0.0015337720655632411
210.8339267407594,0.0035852880848577483,0.0017213443633962218,0.0018639437214615262
221.54062449573507,0.0018253027171785652,0.0013758313740698655,0.0004494713431086999
232.3403466081186,0.0005716999089665723,5.9039465665432004e-05,0.0005126604433011403
243.69590806709107,7.974365454173842e-05,2.0672872553091545e-05,5.907078198864687e-05
244.5540638623904,0.00035859395548234953,0.00016893837823542618,0.00018965557724692336
275.17422890368584,0.0006487828551235121,3.2414287088678525e-06,0.0006455414264146443
297.870674861189,0.030020899923504672,0.024973275497514262,0.00504762442599041
345.23389116591,0.0013084657920020449,0.00015738492942516614,0.0011510808625768787
357.536885512321,0.0023657862743149513,0.00014759941064906065,0.0022181868636658906
389.6657221392509,0.006377978048548132,0.0018194992415883813,0.004558478806959751
414.11869974750243,0.006060347065914826,0.002256203138201085,0.0038041439277137407
462.18964037635925,0.007018588067004758,0.000345535488465683,0.006673052578539075
563.3776140546712,0.003388640380743107,4.808638806064028e-05,0.0033405539926824666
586.7116572149262,0.0012160945285450307,0.0005200190724468154,0.0006960754560982152
690.2437780674466,0.005561012669151207,0.0015256195464568901,0.004035393122694317
731.3831855620101,0.003143289129070608,0.001612681210844429,0.001530607918226179
742.7924845787904,0.0006425849162909876,1.9466409342949707e-05,0.0006231185069480379
756.2591453115373,0.00112980405130768,0.00029212854342691377,0.0008376755078807663
764.6564922059705,0.0040946236275172035,0.0030889333985920867,0.0010056902289251165
803.6141574448342,0.008286007858346302,0.005062161959728506,0.0032238458986177964
870.756479365369,0.03286820957487639,0.029362268398451026,0.0035059411764253624
890.1656449443948,0.0006275648186838684,4.322009174990392e-05,0.0005843447269339644
913.6345862950684,0.01807981905412353,0.012963450885694906,0.005116368168428625
920.0451144093907,0.05235340664071614,0.04312035465643856,0.009233051984277572
921.6261332384031,0.016949778576109974,0.0013772849829341727,0.015572493593175802
962.1718519002858,0.0007319526163808604,0.0006027616598617494,0.00012919095651911104
980.784674863554,0.010268961986173424,0.0039438787394290254,0.006325083246744398
1005.5405199115875,0.008431916710490674,0.0007136501306436753,0.007718266579846999
1059.0284514629677,0.009856625984143556,0.005628079251727734,0.004228546732415821
1065.67330122844,0.04352743788269277,0.016163479392084092,0.027363958490608676
1074.8573951271337,0.009589909054242925,0.001368146071111054,0.008221762983131872
1085.4485799932202,0.031261250610273766,0.0009081695463489574,0.03035308106392481
1127.2471026202163,0.02078535026424214,0.013968502379956466,0.006816847884285673
1130.0218662484162,0.001024757370432671,0.00010438169293788912,0.0009203756774947817
1144.6938108855088,0.06278456976815558,0.047616960313971037,0.015167609454184538
1145.3103928058133,0.004052685962340744,1.2088782993476273e-08,0.00405267387355775
1169.1656679272962,0.025731986899753787,0.01653888793020584,0.009193098969547946
1197.2610500047838,0.003576358327265415,0.0009255786264612194,0.0026507797008041953
1201.9939068043416,0.003924727045272064,0.0010480898229992526,0.0028766372222728113
1240.6889830038551,0.010916390255759198,0.001398590934725476,0.009517799321033723
1254.9275512484367,0.0019466196902342809,1.99377382629939e-05,0.001926681951971287
1272.613145355722,0.001259520775901714,0.0006295117841290141,0.0006300089917727
1299.958198668382,0.0006876983364587893,4.9726422044549995e-05,0.0006379719144142393
1324.8257504715616,0.028434067254218612,0.00011537615743219678,0.028318691096786416
1331.2677598464113,0.0024371662459399452,0.00031830215482039486,0.0021188640911195505
1331.9356087388371,0.017594829514126685,0.0007756870090694044,0.01681914250505728
1338.5612380247078,0.027664719365703583,0.00024358715681307823,0.027421132208890503
1355.0654146426357,0.003392760918473197,0.00017759695339862125,0.003215163965074576
1386.4467840227035,0.00680706225195811,0.0003592630753401313,0.006447799176617979
1397.815418482804,0.011303937194681802,0.0013014574510905581,0.010002479743591244
1410.6311618803043,0.002637524339239951,0.00010866841309968664,0.0025288559261402643
1413.8864496574809,0.00306258972753073,1.0678240697630145e-05,0.0030519114868331
1415.442965742754,0.0021465237448837684,0.0006148712420173074,0.0015316525028664612
1425.7646693898544,0.005011042730539709,5.339398876097188e-06,0.005005703331663612
1434.977950931083,0.004338679730364135,0.000239956768981202,0.004098722961382933
1458.4148483159709,0.024701390652827827,0.00022749049103432497,0.024473900161793502
1483.9437150417527,0.009654355498819541,0.00031587135772401736,0.009338484141095523
1485.6980504352614,0.03885934782705707,0.0006235579888044446,0.038235789838252626
1488.6898839087444,0.036140149162217576,0.0021101043204214596,0.034030044841796114
1488.8550052822368,0.04638724674237521,0.0017451891465827389,0.04464205759579247
1494.0416244531425,0.02551373490770424,1.7853506178753507e-05,0.025495881401525488
1495.063570018954,0.01794085464769386,4.0432928584752706e-05,0.017900421719109105
1495.8086031466116,0.012533330290250192,3.5472282243151352e-09,0.012533326743021968
1501.0374640780287,0.020109446526250383,0.00046187006835991004,0.019647576457890472
1504.867136271615,0.002689295714552114,0.0003959140275997414,0.0022933816869523727
1506.3954484374171,0.0016873285490433439,0.0005661713575212334,0.0011211571915221105
1820.207842108042,0.031233774792379793,0.024189741644660596,0.007044033147719198
1834.0687746408753,0.025655330595689037,0.0223916640232184,0.003263666572470635
3038.369673659207,0.7449990090736183,0.6577143015510377,0.08728470752258055
3049.306838950994,0.7456018612408055,0.7411144981310939,0.004487363109711626
3053.111774838205,0.6410235601204248,0.6283742885078659,0.012649271612558962
3062.231021551417,0.680274713379314,0.5587631765493015,0.1215115368300125
3064.689210457204,1.0639083245431944,0.9976244198207727,0.06628390472242177
3072.458297846072,0.41054495810215297,0.060443294178971846,0.35010166392318115
3074.6816719212993,0.8496301344043012,0.8443357614572489,0.00529437294705232
3075.5366512398787,0.06516487936423218,0.022763511037810276,0.04240136832642191
3092.709294158154,0.5656708832030692,0.0044894786494943245,0.5611814045535749
3098.0432387460714,0.5064925391302332,0.4569424779658479,0.04955006116438523
3103.785923230967,0.015563597686489964,0.0013217420422561423,0.014241855644233822
3107.817394427837,0.05078606387506424,0.008409269010747435,0.04237679486431681
3112.442571162759,0.22039669464181977,0.0971737964934438,0.12322289814837596
3119.858705688258,0.19592553693943282,0.006524950918038045,0.18940058602139478
3124.034980439938,0.027430619848805265,8.349269830066521e-05,0.0273471271505046
3125.3589693067415,0.3896557689881159,0.056559484501190416,0.33309628448692546
3125.9247283956506,0.39230952835228483,0.07807881771173186,0.31423071064055297
3151.064260600498,0.20255233391157276,0.032291196082453545,0.17026113782911922
3152.2091072434105,0.19674514341413168,0.03723727952394585,0.15950786389018584
3157.6864972680874,0.24480774090857677,0.0008266963409183154,0.24398104456765846
