frequency_cm1,total_intensity,isotropic_intensity,anisotropic_intensity
2.21724939827718e-05,0.0,0.0,0.0
1.6511277051441472e-05,0.0,0.0,0.0
1.0548513373587754e-05,0.0,0.0,0.0
0.8874383421384653,0.0,0.0,0.0
1.1152450728527072,0.0,0.0,0.0
1.7355172731870143,0.0,0.0,0.0
11.741494490293684,0.00044153739047569994,2.6541995095891895e-06,0.00043888319096611076
15.486831554283503,0.0018273254426608432,0.00033635572233330015,0.001490969720327543
19.749959647044623,0.022504306755952216,0.00026881653250655996,0.022235490223445654
24.41037133792296,0.008850870809314017,0.00018595163707391625,0.0086649191722401
41.10289454338104,0.011542278126938147,0.0003310156199082862,0.01121126250702986
78.2666535884459,0.030087768383646442,0.0023537598307059745,0.02773400855294047
90.9799122834701,0.0013477414547432996,9.595193163629466e-06,0.0013381462615796702
128.64583010326655,0.007039650987883449,0.0017459585362864186,0.005293692451597031
147.42596279314077,0.004228577451323207,0.0006400101917944418,0.003588567259528765
201.24083788675188,0.020625645046135493,0.002802614983533745,0.017823030062601747
263.03365507467305,0.006605768939587966,0.0011779840689485016,0.005427784870639465
273.9129932910795,0.005839470143531692,2.8282415068019486e-05,0.005811187728463673
316.2794518400675,0.009887685312014446,0.0062596777339521455,0.0036280075780623007
342.3189197090882,0.006560166456984364,0.0046931726396517125,0.0018669938173326514
393.2694793279856,0.003211157277014369,0.0006058606348376897,0.002605296642176679
416.2960599857754,3.439453044986002e-05,2.785701658658138e-05,6.5375138632786345e-06
417.18720481963106,0.0023124465367857167,0.000875946096116097,0.0014365004406696196
431.65117835383785,0.0031378540988218845,0.0009585877410152291,0.0021792663578066554
468.9516359369095,0.0018314374409051303,0.0005568251924292981,0.0012746122484758322
486.18963634968225,0.013054064045491812,0.009495581938156717,0.0035584821073350948
532.8694927758693,0.015645056607023738,0.009323692747026956,0.006321363859996782
562.8089117984854,0.008337701516208421,0.0037804468320642415,0.004557254684144179
623.1256548064433,0.02124519478024068,0.017597917179665804,0.0036472776005748737
633.6856496980863,0.026543497769500816,0.0006935184702816502,0.025849979299219165
634.6127393896863,0.016194194751831273,0.0001021477423987721,0.0160920470094325
658.2931010522709,0.014945951711488678,0.006121348395535199,0.008824603315953479
714.9679429126219,0.001226837595601726,0.0004046280242617784,0.0008222095713399478
720.1388912351958,0.0004139539382390136,1.430216778373697e-05,0.0003996517704552766
747.5458305931536,0.004153265456126741,0.0013642149291501254,0.002789050526976616
777.0637329663884,0.0029442547873038357,2.984540284699334e-07,0.002943956333275366
788.7369069318564,0.046461816763151254,0.04331199366533172,0.0031498230978195367
833.6533289267431,0.019153498973141666,0.011341252210789948,0.007812246762351718
856.3800580493246,0.046365169079679004,0.0063484060088791604,0.04001676307079984
869.0326438663803,0.012252491298552139,0.005232925881268562,0.007019565417283578
871.206787143731,0.04405682568473878,0.04001186145270394,0.00404496423203484
874.0139556656452,0.005160912804797068,0.0019410117265892522,0.003219901078207815
898.8288169246323,0.06749626797373023,0.022234263527982003,0.045262004445748225
950.5521649512418,0.009260816307327762,0.005093652894202682,0.004167163413125079
953.3681015823291,0.00416575046322167,0.003022849367960946,0.001142901095260724
956.2970947629722,0.014665752091048907,0.009385242072060476,0.005280510018988431
1007.1230121466258,0.06757446485249213,0.05505398979613427,0.012520475056357873
1009.8024991514868,0.002390797060335386,0.001786425875769392,0.0006043711845659942
1009.8898592187987,0.0015485227296880971,0.0011632449265461507,0.00038527780314194645
1014.7369262696483,0.04291063223891465,0.019100010330182954,0.023810621908731695
1026.975270246533,0.3223256830313891,0.2672649394177631,0.05506074361362602
1027.0205204929464,0.07444437609513656,0.0539443163579713,0.02050005973716526
1028.352318919043,0.04418721722763963,0.023330362770457486,0.020856854457182147
1030.5478251715465,0.0009274841242999758,0.0005128776038469576,0.0004146065204530183
1031.6418490881174,0.06598149072909588,0.023299089354684773,0.042682401374411115
1064.716049228197,0.11051520242585616,0.09890587714669555,0.01160932527916062
1065.2041126984695,0.09955372995471168,0.08633870626179971,0.013215023692911975
1110.5376711196832,0.006217965433927179,0.0005685114019406944,0.005649454031986485
1111.7497484870903,0.01774732612462885,0.009377350248163068,0.008369975876465784
1136.8277982948264,0.016142607715357932,0.00016572096894456874,0.015976886746413364
1154.9296018770317,0.06698950541733262,0.02807800480231406,0.03891150061501856
1175.8474507695146,0.04678854076087123,0.0009072976407461068,0.04588124312012512
1178.5995288736162,0.03432414208357208,0.002837797546549694,0.031486344537022384
1207.8883978116462,0.02332428586579764,3.464817071645761e-05,0.023289637695081182
1208.54801989457,0.10826338761018557,0.0708040108352705,0.037459376774915065
1228.55607184861,0.0791906262928174,0.0646996363267912,0.014490989966026206
1238.5324961327995,0.41691047749271143,0.21737273104526253,0.1995377464474489
1273.9435230112301,0.0801404045907455,0.05028116448775025,0.02985924010299526
1289.2909460898636,0.227087808223009,0.09622102348347883,0.13086678473953017
1312.911224867889,0.1148768414227996,0.0568313704095827,0.058045471013216894
1314.1525750581532,0.1693420942927592,0.08223832002864416,0.08710377426411503
1329.9583006455946,0.3095432192443037,0.16984703273114898,0.13969618651315477
1339.7875889989573,0.05327715015609562,0.019448133013967712,0.03382901714212791
1352.604276052145,0.022992531968103996,0.0036654340935420577,0.019327097874561938
1368.1647272698917,0.0007187789780099327,0.0003216562943887147,0.000397122683621218
1372.9565143734185,0.03014214230335419,0.012960169332922742,0.017181972970431447
1409.7856401119795,0.004526199379695955,0.00011088224220265962,0.004415317137493296
1474.169432582272,0.09628352886933399,0.016140153985288546,0.08014337488404544
1485.6970679973208,0.10259697532644946,0.033882472847850384,0.06871450247859907
1497.2315631276037,0.024161389333727763,0.004683313642262532,0.01947807569146523
1501.734419306655,0.0049877939916141475,0.0001263162418356571,0.0048614777497784905
1544.870140075538,0.0011828828301876715,6.706537739449638e-06,0.0011761762924482218
1546.2250762698104,0.10409717953943037,0.03404754423360492,0.07004963530582546
1657.349119617602,0.04810685199570191,0.009302480230574098,0.03880437176512781
1663.917070482773,0.04258584433822454,5.605178627531337e-06,0.042580239159597015
1682.0341838510406,1.3143912287689576,0.37548232300200046,0.9389089057669573
1683.7794730165651,0.11941650171122314,0.0078069786166397245,0.11160952309458341
1758.6429140115413,3.6413739833653693,1.7981578702208212,1.843216113144548
1817.1839590937004,0.0062711085279614455,0.0013339500618484617,0.004937158466112984
3099.709222882359,0.5941225793675893,0.5626694772524061,0.03145310211518316
3104.0045502856487,0.5445193061886975,0.45606136530535174,0.08845794088334577
3154.3708984940477,0.32370592608962634,0.02616501815291908,0.2975409079367073
3159.6175734969947,0.1482704173113989,0.00925002662577433,0.13902039068562458
3171.3759741318595,0.2747699706728438,0.19230829904167918,0.08246167163116461
3185.9735745980593,0.10433853133841547,0.05287325544693164,0.051465275891483836
3191.216120273426,0.054866770101911655,0.00996510621300226,0.04490166388890939
3191.608747309517,0.1294227499793562,0.02051315182682447,0.10890959815253173
3194.852398290858,0.3897592176584334,0.0006820863162815063,0.3890771313421519
3197.238929362217,0.38432158519117915,0.0176186994738104,0.36670288571736875
3204.239178497727,0.45823028283948203,0.1317713933593907,0.32645888948009133
3206.7606734573487,0.4515099658072585,0.04398720292768048,0.407522762879578
3211.7743731182,0.11005369883384293,0.0025800449303527853,0.10747365390349015
3214.677106629083,0.09783643364174929,0.0014644941696837633,0.09637193947206553
3222.313558041797,1.452581147665248,1.1871730966468312,0.2654080510184168
3223.191743412,1.747737073252489,1.439792572319288,0.3079445009332011
