frequency_cm1,total_intensity,isotropic_intensity,anisotropic_intensity
1.2796136241382614e-05,0.0,0.0,0.0
1.5497942136626473e-05,0.0,0.0,0.0
2.1929427934014077e-05,0.0,0.0,0.0
0.6652643163881953,0.0,0.0,0.0
1.0096301918290245,0.0,0.0,0.0
3.5809989026036,0.0,0.0,0.0
17.261766666962334,0.001468383988218462,3.55566625464031e-05,0.0014328273256720588
27.255454851424673,0.0012985772253927123,7.316897673187545e-07,0.0012978455356253936
38.693947578405485,0.0036497265393543306,0.00011277629421954005,0.0035369502451347906
44.692631156812354,0.002320914768749665,0.00022243131654645947,0.0020984834522032054
60.72292410073892,0.00704855507598014,0.0007803745907032141,0.006268180485276926
70.40333765646734,0.002254459170945778,4.225569395495586e-08,0.0022544169152518227
90.52456103652482,0.0016195366813226138,4.996799577514176e-06,0.0016145398817450996
106.39570319356878,0.003800894000189398,4.6625831156771434e-05,0.0037542681690326267
116.97874415576752,0.0009554250657960871,0.00019937484618736778,0.0007560502196087193
127.14372638250056,0.002618442805429215,7.344020083697772e-05,0.002545002604592237
152.01483197502446,0.00033978355142871874,0.0001008779857570307,0.00023890556567168802
164.4855558206521,0.00033995276898162157,9.606582262771716e-05,0.0002438869463539044
190.48374328618613,0.015280885755482171,0.010625843099727039,0.004655042655755133
218.84702509124287,0.003954744461776289,0.0024752568177768292,0.0014794876439994597
246.2271128094615,2.3262704828578736e-05,9.834227350137982e-08,2.3164362555077357e-05
311.71739600214437,0.002911602599774317,6.59929303643832e-09,0.0029115960004812806
348.09664816756316,0.001987945518838195,1.363707289689706e-05,0.001974308445941298
357.7807747463341,0.003509291708482697,0.00014716321859402741,0.0033621284898886694
407.13627174185507,0.005351049480778165,0.003357769653855979,0.001993279826922186
434.23746895402314,0.010716868296760579,0.005798355418554133,0.004918512878206447
467.7316287769147,0.00030604794915029606,1.7018356798395023e-06,0.00030434611347045654
512.5784616496999,0.004638732637684826,0.002449244966564544,0.002189487671120282
585.4609768560466,0.0007977834107089442,6.58973404349533e-05,0.0007318860702739909
679.1844531901621,0.004933183042741638,0.0012685082820478233,0.003664674760693815
709.1147880054591,0.004820608692827771,0.00010577860858835623,0.0047148300842394155
728.9430345591978,0.00013645667510059345,1.5759810711860566e-06,0.00013488069402940739
734.1231144136406,4.9421778746912475e-05,1.7613222808487813e-06,4.766045646606369e-05
756.1016781944683,0.0005654543062315992,2.3886596149593742e-05,0.0005415677100820054
804.2213048567647,0.00010093944548795011,4.571787996297597e-05,5.522156552497413e-05
872.003979198724,0.0006920189685139988,1.820331540951691e-05,0.0006738156531044819
897.7899011933885,0.0752243572184692,0.052920540888076746,0.02230381633039246
910.5551220030667,0.007631347571691614,0.003009710542004323,0.004621637029687291
936.7500907042702,0.02844172045115909,0.021594044569919972,0.006847675881239117
951.726396104068,0.0001549997552017919,7.076726308316072e-05,8.423249211863118e-05
989.6654134148203,0.007026249283090276,0.0010538743144350628,0.005972374968655213
1000.3741069842597,0.003305415973580983,0.0013824110295482608,0.0019230049440327225
1010.9947799818965,0.010741534693969712,4.7911790133851416e-05,0.01069362290383586
1026.470625788077,0.010241385126873148,0.004388145836904337,0.005853239289968811
1028.9647554104913,0.00125211915104081,0.00047670123793948013,0.0007754179131013299
1035.8635114829844,0.003812709835912004,1.914545419175903e-05,0.003793564381720245
1050.3600543553011,0.012693802779710753,0.005766741880651835,0.006927060899058918
1067.5584189068907,0.020552063226765224,0.000742201210006174,0.01980986201675905
1088.5823391032861,0.016217767166648432,0.00489397849183064,0.011323788674817793
1090.8922063352895,0.03838872916641428,0.0012790308016121313,0.03710969836480215
1099.6751095063876,0.026665649498312134,0.01154815709983741,0.015117492398474725
1142.9020989965243,0.0035772525079225946,1.1037670642708649e-10,0.003577252397545888
1151.6904107293644,0.14269798364112538,0.09165106286307392,0.051046920778051445
1178.4637921832718,0.0046361995547543906,3.6730627061761063e-06,0.004632526492048214
1199.1779705029,0.0135237466554863,0.0028587162942950778,0.010665030361191223
1213.1949763335438,0.005503202978291102,9.949705757533326e-07,0.005502208007715349
1243.5681116116605,0.0020750421738952667,0.0003392978567520636,0.001735744317143203
1253.1752018214718,0.0009761412444108168,2.151854682337835e-05,0.0009546226975874385
1289.4741168068801,0.0036253951629001283,0.0005110917152228446,0.003114303447677284
1292.6787063115294,0.004007956132602856,0.00010728963218630605,0.00390066650041655
1303.1340693033762,0.0193411448672353,0.0010204233366965163,0.01832072153053878
1320.0327064538114,0.0037550244140851113,2.509988002812169e-05,0.0037299245340569895
1322.7697760878511,0.07805633149175399,0.03669641800921512,0.04135991348253887
1328.0416528607482,0.09015221591528073,2.001110235288194e-05,0.09013220481292786
1335.1570935129384,0.0021752967520509425,0.0010086376720284769,0.0011666590800224654
1336.1696538988865,0.0021898184440782595,0.0013997996806995746,0.000790018763378685
1337.5425495539414,9.324020485070592e-05,1.524963261388408e-05,7.799057223682184e-05
1373.5858265873558,0.001168734426027722,2.6184092561397907e-05,0.0011425503334663242
1392.4887006079168,0.0033398732130319247,0.0016797140099403332,0.0016601592030915915
1408.5279857723863,0.0031571657391046616,0.0004923453448456061,0.0026648203942590556
1413.300622204567,0.0015751425762725577,0.0006829784616177262,0.0008921641146548314
1420.6738291539366,0.004875352550926197,9.074543233652643e-05,0.004784607118589671
1426.980055822297,0.004243603919588836,0.00031524575972822306,0.003928358159860613
1457.6297164537832,0.059029755199049294,0.02290112049468231,0.03612863470436698
1460.5072944027343,0.015666021187095192,1.021040743154175e-07,0.015665919083020875
1480.9950098670915,0.0011218296301923835,0.0002028328972484023,0.0009189967329439813
1482.104449269002,0.03357872279271531,0.0022708267904482955,0.031307896002267015
1484.6306119552662,0.030605620248245365,0.00475262296178228,0.025852997286463085
1484.8694602648582,0.10800124102530961,0.004024240224782068,0.10397700080052755
1489.1765223296102,0.0036282443700289702,3.528146478451019e-05,0.00359296290524446
1493.8556438665266,0.027054330848168752,7.509725293563398e-11,0.0270543307730715
1495.8888920439858,0.011432431054371544,0.0005596514132167453,0.010872779641154798
1502.3687611674611,0.0014142449001507313,0.0007046140531187413,0.0007096308470319901
1506.1496111689214,0.0018294722492665538,4.209717717451422e-05,0.0017873750720920395
1741.4282499940914,0.21456155032624882,0.17568935764648824,0.03887219267976058
1820.1932536206716,0.013959724978311166,0.010603841782608118,0.0033558831957030484
3021.7111425415724,0.030527537223936134,0.030268624070161093,0.0002589131537750407
3024.4082436270887,1.733510802764657,1.6795907773345864,0.053920025430070635
3025.954208814645,0.19337150610527168,0.17669989826397958,0.016671607841292086
3034.686569367965,0.17076614276908642,0.15547172736320966,0.015294415405876758
3041.185819599579,0.4267715533573042,0.3930639980823853,0.03370755527491893
3044.874054440761,0.932124827347332,4.437620612951222e-05,0.9320804511412025
3049.347312244657,0.0005494753659243346,0.0004949765323628692,5.449883356146537e-05
3050.1894468718465,0.8838511873702023,0.8765418273100332,0.007309360060169106
3059.0526433488244,0.961274228429967,0.9256225391449899,0.03565168928497712
3060.7275718725455,0.18568817186604578,0.05207473067747656,0.13361344118856922
3067.7586461880646,0.035758388296732974,0.03283291619299515,0.0029254721037378258
3075.095961392609,0.032463518988826635,0.0013251399799997904,0.031138379008826843
3085.621370272635,0.11969952943209712,0.0019492907673127214,0.1177502386647844
3091.9523055469226,0.19794560031795513,0.010276201944360904,0.18766939837359423
3099.9431679262034,0.5802079173229668,0.4990451793181586,0.08116273800480822
3111.6228355587473,0.0027864948482468344,0.0008397064435304851,0.0019467884047163493
3113.22848547366,0.1295024598311151,1.815941373804932e-06,0.1295006438897413
3121.443705091875,0.409898395173971,0.06252884638147657,0.34736954879249443
3149.9427028257273,0.2702705301296097,0.008274576164070051,0.26199595396553965
3161.94493445195,0.3210410232904255,0.21429448350025662,0.10674653979016888
3176.429233599666,0.5287653525792789,0.4045814511278619,0.12418390145141703
3250.2455882402683,0.2736178613299579,0.023864896976210217,0.24975296435374772
