frequency_cm1,total_intensity,isotropic_intensity,anisotropic_intensity
2.9076444862593207,0.0,0.0,0.0
0.31596316295737764,0.0,0.0,0.0
0.041452624185449906,0.0,0.0,0.0
3.1621195125603786e-05,0.0,0.0,0.0
1.0526343338348848e-05,0.0,0.0,0.0
2.1252507759866443e-05,0.0,0.0,0.0
7.326346265102277,0.0023261898997899693,9.805675838375259e-08,0.0023260918430315857
11.591764044765302,0.00044246214827764387,5.563637676170825e-07,0.0004419057845100268
18.799903861379743,0.008519562646076218,2.925115050342635e-07,0.008519270134571185
20.3728343745863,0.007075003426826236,2.2081738418856274e-07,0.007074782609442047
32.666476944001175,0.0019030808728777656,1.9929826849240442e-05,0.0018831510460285252
35.05961559575392,0.004245658851780108,1.0576593123459268e-07,0.004245553085848873
49.999952126647386,0.0007105620178512662,3.3563781864796494e-07,0.0007102263800326182
58.4709302726655,0.003183202350404703,2.867478304356444e-07,0.0031829156025742675
65.74932295059405,0.00029064021151569027,0.00012021076058666355,0.0001704294509290267
80.94781707216298,0.00038007475233067654,1.3948922937631558e-06,0.00037867986003691336
87.67210623369283,0.00041198861505235433,1.4121631473281415e-06,0.0004105764519050262
101.56306764619342,0.010972618862078525,0.006885191167086074,0.004087427694992451
110.18269198835833,0.00043615991361316514,4.845327481026437e-07,0.0004356753808650625
115.33279098004657,0.003814331093725872,0.0023520623939375235,0.0014622686997883484
118.53477040946021,0.0002941995307581766,1.2575718017695873e-05,0.0002816238127404807
135.61234739501148,0.0003067169546430939,1.9786691394603312e-06,0.0003047382855036336
146.03473340218846,3.0075188858813065e-05,6.678220263897076e-07,2.9407366832423356e-05
155.38983384903088,0.00038677609446861986,1.4723357278146934e-05,0.00037205273719047294
164.906882705922,3.6035227253467715e-05,5.224579142310375e-06,3.0810648111157344e-05
165.46702029233217,1.9080209772812582e-05,4.4902290963294224e-06,1.458998067648316e-05
169.76869734263326,0.00017254809899970558,1.8742633831583994e-05,0.0001538054651681216
176.64829192741996,2.879119433609656e-05,4.996677522784515e-06,2.3794516813312045e-05
178.45472840337584,6.990068673080664e-05,7.86949674878844e-06,6.20311899820182e-05
219.21769276565777,0.00038802829194451474,2.4288819792689416e-05,0.0003637394721518253
225.65048511171452,0.0005346605869274772,0.00011205128279641572,0.0004226093041310615
232.8684971097568,5.40800007718154e-05,1.314339059931464e-05,4.0936610172500765e-05
246.03704108289256,2.1043955347278454e-05,1.2353220704342265e-08,2.103160212657411e-05
286.9376894009205,0.00010658532992321502,8.386861257471891e-07,0.00010574664379746782
324.7279873161372,0.01036310618980132,0.006561161260279533,0.003801944929521786
344.76468728060473,0.0005785625986980804,0.0002462983293960521,0.00033226426930202824
368.9115536749111,0.00896764179246749,0.0005341946692213631,0.008433447123246127
386.45898040654606,0.0008315123179181305,3.00222992770223e-05,0.0008014900186411082
408.7175106494181,0.0009296163781549481,1.76198464467343e-05,0.0009119965317082138
429.9052585514332,7.144841678107632e-05,1.2881826243947502e-05,5.856659053712882e-05
437.0247491920631,0.0004425105133831436,0.0001055605349474983,0.0003369499784356453
470.16251722106733,0.002961514480536944,0.0010505519326923032,0.001910962547844641
490.3865151289137,0.006578364910344008,0.0033046350528676007,0.003273729857476408
514.653004881395,0.00048426339450688915,5.8473220843348424e-05,0.00042579017366354074
523.2816422446579,0.0012098293152473757,0.0002847750115855886,0.000925054303661787
528.283234443761,0.003074782917255311,0.0016217589193839458,0.0014530239978713653
565.2111200964242,0.004554524831310374,3.584276520869292e-06,0.004550940554789504
656.9464846714992,0.03842535117855697,0.0015958991480071608,0.03682945203054981
659.333011340577,0.03867177470003151,0.02303288240555678,0.01563889229447473
727.8565235501948,6.903265014276527e-05,7.50377791195112e-07,6.828227235157015e-05
728.4293825113491,2.023098637515734e-05,4.821165465914433e-06,1.5409820909242907e-05
730.1265530949327,6.037092271459464e-05,6.1711425532502396e-06,5.41997801613444e-05
734.1329994787112,7.415056172479597e-06,2.054172700062854e-06,5.3608834724167436e-06
739.0097057550508,0.006581752070124282,0.00016714093489184862,0.0064146111352324335
742.5249920770547,0.00016133959689560522,1.1104885026045226e-07,0.00016122854804534475
756.8299931528942,1.2111627466860603e-05,1.3660639919785598e-07,1.1975021067662747e-05
777.9245976505542,0.00032668768738228503,3.83948756354845e-05,0.0002882928117468005
791.8687223715616,0.02548129008344591,0.017830314276749224,0.007650975806696686
805.7060231840188,0.00023370865858502737,0.00010905417012211863,0.00012465448846290874
824.4213479996523,0.003250472234730926,2.042204860157929e-05,0.0032300501861293467
840.5687997984793,0.0007606903600327438,5.011591989540907e-07,0.0007601892008337897
858.1393974726009,0.0033830663968496943,0.0027970780688803248,0.0005859883279693694
877.5645182660256,0.21389473899332018,0.1880550365729068,0.025839702420413384
879.7688633281035,0.021231313129163355,0.018649040640612645,0.0025822724885507108
908.2358764520069,0.03336499384795043,0.020356735155713127,0.013008258692237302
920.0891749029902,0.0005517005696751075,6.675843710159965e-05,0.0004849421325735078
952.654741882437,0.0013113240867487438,0.00035693037172868417,0.0009543937150200596
962.449002256507,0.0001901012131550625,4.775168430989034e-05,0.00014234952884517216
977.775886253583,0.0001247201971327133,4.224490285965423e-05,8.247529427305906e-05
1001.4289459336026,0.000132371272827072,7.947093788093658e-07,0.00013157656344826263
1003.6333984251439,0.0014679775860251252,0.0011801183779432613,0.00028785920808186403
1009.3368863051187,0.0004472393073301738,0.00032795734702636904,0.00011928196030380474
1024.7876984711606,0.0012762917329189067,4.758255961974614e-05,0.0012287091732991605
1032.7220887762783,0.003362337337298198,0.002103565328664384,0.0012587720086338144
1036.4644529169218,6.213181897638322e-05,3.340228950088698e-07,6.179779608137434e-05
1038.2605810182513,0.00976476582522215,0.008027102140683836,0.001737663684538314
1053.3988833038727,0.0028489947539483357,8.522378262898673e-05,0.002763770971319349
1062.6348303518853,0.00013426844879249676,6.236266740451681e-06,0.00012803218205204508
1064.911442280508,0.001996443081793339,8.766817341038315e-05,0.0019087749083829561
1075.1787008880865,0.009982626812255958,0.007857732025303429,0.00212489478695253
1087.0336263475722,0.04603212440842939,6.23719696494379e-06,0.046025887211464445
1088.2945576161558,0.031206362615733643,8.772987986277144e-06,0.031197589627747366
1088.7945951507509,0.07298013363260628,0.00011882914390247729,0.0728613044887038
1092.0019464374616,0.001781749042587149,0.0005181123299103781,0.001263636712676771
1092.4072176340899,0.005488327419229918,0.0001835441083845713,0.005304783310845346
1097.3192655938449,0.006147736134082404,0.0006649729460737083,0.005482763188008695
1102.8255229584208,0.0043286181942294505,0.0008958407152978639,0.0034327774789315864
1105.0551559860496,0.0077291596467171765,0.006930191203999566,0.0007989684427176103
1136.5392885758245,0.05369163265566218,0.02451651385955236,0.029175118796109817
1145.487527864832,0.0009552643657830076,0.0005512364520980698,0.0004040279136849377
1159.3375666671445,0.3460016672167799,0.19783027036612583,0.14817139685065406
1189.633817560814,0.004912051747851563,3.7627831828967184e-07,0.004911675469533274
1201.4164579947742,0.031898757899953015,0.02020271947228929,0.01169603842766373
1205.5761961069843,0.012506799320384199,7.542360387064403e-06,0.012499256959997134
1217.779227976054,0.0005234888233666048,0.00021462770647535462,0.00030886111689125016
1222.4770373630656,0.0019373782938856175,5.742465462479178e-08,0.0019373208692309927
1240.1486426816007,0.0004741989817744629,1.6949028034807888e-06,0.0004725040789709821
1243.6380047962552,0.0012692105339745302,3.801370246895513e-06,0.0012654091637276346
1261.8667630496545,0.0013790822026399782,0.00018153871419586436,0.0011975434884441138
1265.102377391852,0.0008970866924402802,1.8243475777945255e-07,0.0008969042576825008
1275.312852132459,0.019254636729490564,0.009452697873187676,0.009801938856302888
1284.3309114149597,0.0006203324319558147,1.5392574662914857e-05,0.0006049398572928998
1285.3982817265517,0.0015257892011627757,9.307780115247135e-06,0.0015164814210475285
1293.9748658537037,0.046886399023165194,0.03056443728269247,0.016321961740472724
1302.8524237037038,0.0005145815942945908,4.203015326912197e-05,0.0004725514410254689
1307.5255717119155,0.0045543357027480105,0.0038489090081131982,0.0007054266946348121
1316.6380009436618,0.01613771511997176,1.3122628229368913e-05,0.01612459249174239
1322.849998053522,0.11881515118234759,7.662841353883087e-06,0.11880748834099371
1324.7214901463014,0.09514409391070792,1.1970506174786273e-05,0.09513212340453314
1327.6215939590159,0.14545215917487453,0.12214498294075826,0.023307176234116274
1328.8334753878348,0.0013115202863438783,2.841410710244047e-06,0.0013086788756336344
1329.9958341030053,0.0021560084387532413,7.497259356170294e-06,0.002148511179397071
1331.4995229071392,0.008299078747812792,0.006404594355857855,0.0018944843919549371
1335.153457224323,0.0073126351176435464,2.7827382162566703e-07,0.007312356843821921
1335.6996132447484,0.000854208344673715,1.1847707300965964e-07,0.0008540898676007053
1338.3948547236441,0.0001983590890879148,6.53137748958916e-08,0.0001982937753130189
1339.2099486373656,0.0014559881992329115,4.971417762655178e-07,0.001455491057456646
1354.4588350225656,0.012517514134252773,0.008877033193793148,0.0036404809404596253
1356.7322114146414,0.05197971415710047,0.032406773311698986,0.019572940845401482
1376.1691238109765,0.0015671726263266942,1.4527729116680224e-05,0.001552644897210014
1394.1652556527456,0.0004577523488987514,0.00021275819865316153,0.00024499415024558985
1407.5077739531669,0.0024007960909778717,0.00018377338112579702,0.0022170227098520746
1412.6218832917618,0.0014947612419827355,0.0005696353731046652,0.0009251258688780704
1416.7967560945742,0.0011069605313942116,0.0001914730338249651,0.0009154874975692464
1420.1636205175787,0.015721211548287345,2.003620937946989e-05,0.015701175338907875
1421.1089979158644,0.0002657809683560864,2.1412082200313306e-05,0.0002443688861557731
1422.0128572694318,0.0008255459604724294,2.472156939350764e-06,0.0008230738035330786
1436.7173407881205,0.007010336913587097,0.0025673931548815055,0.004442943758705592
1479.9726421639652,0.0009833837623514344,0.0005923012225624272,0.0003910825397890071
1480.102337291794,0.000264352740768284,4.296039252641115e-05,0.0002213923482418728
1481.3999285086627,0.013011304914786392,0.0014038597644505158,0.011607445150335877
1481.7750819713024,0.0010180502856887987,4.480658515235962e-05,0.0009732437005364391
1483.4324742114663,0.003608222476562222,0.0025108955883893598,0.0010973268881728621
1484.2331918131204,0.036915211066299324,0.0038252411135052673,0.033089969952794056
1485.2358098046066,0.28404473140847536,0.0257278113101466,0.25831692009832874
1487.2357402892494,0.0013923806475499333,0.0004971808792203959,0.0008951997683295374
1490.2330251758774,0.024689878992129474,0.005741323761550118,0.018948555230579357
1490.2881548706184,0.0074364991089517565,0.00023985242428877857,0.007196646684662978
1493.5070250942858,0.0015567627053306942,0.0008862032710769416,0.0006705594342537525
1493.7629307518162,0.026994213766213408,3.6883576803613107e-06,0.026990525408533046
1496.7728504500806,0.01442396163621754,0.0010286632844276093,0.01339529835178993
1499.8488170138758,0.002507608115353189,0.0007461293376341249,0.001761478777719064
1502.718693450691,0.005873499882662647,0.00017683309197091943,0.005696666790691728
1505.0697024564497,0.001423114762804613,0.00022716026660539476,0.0011959544961992182
1506.4150676882944,0.0013941962609099682,3.8722802610136236e-07,0.0013938090328838668
1516.4751350329234,0.012177255157372049,0.0008784302082970902,0.011298824949074958
1563.0954991320255,0.0025151748833642713,0.00020533752399346197,0.0023098373593708095
1654.4465995319472,0.02539903362896909,0.011202100362626371,0.014196933266342719
1666.841200390142,0.022365987571290276,0.002734158411528848,0.01963182915976143
1703.2326672671536,0.4761562214860383,0.13500982731882746,0.3411463941672108
3008.312870317918,0.35889992642025087,0.34644224191563244,0.012457684504618451
3021.314983776691,0.02516109712930051,0.022676732208197162,0.0024843649211033487
3021.3914388705793,0.003681932897580951,0.00352901739800402,0.00015291549957693114
3022.576224019798,0.0331028674263928,0.027040845133508302,0.006062022292884496
3023.1532853569092,0.009725908022710403,0.009243775410370839,0.0004821326123395647
3024.1409559374074,0.42779420812237356,0.40737976408392246,0.020414444038451086
3024.830590816922,2.014763956662593,1.98021483830631,0.034549118356283104
3026.202169078297,1.80363525855854,1.7765156809674203,0.027119577591119794
3026.962764983934,1.7346324728117102,1.7247931927276037,0.009839280084106406
3029.887763183725,0.21544509558239883,0.20783628831827455,0.007608807264124278
3033.523375908917,0.01590660073853767,0.011207325334895947,0.004699275403641721
3036.971924498118,0.12935944316388165,0.12201786625250852,0.007341576911373118
3039.879186232319,0.03309922125439271,0.027000586561326836,0.00609863469306588
3041.187362417109,0.3857022050374164,0.35642785069340666,0.029274354344009768
3042.8103517963245,1.5472758713133299,0.00010184619779372438,1.5471740251155361
3043.779887776175,0.008013162055819919,9.321468101288102e-07,0.00801222990900979
3045.5339754973497,0.479558867231091,3.1254373507875666e-05,0.4795276128575831
3048.0220062523986,0.002055200314901958,1.2726725380990867e-07,0.002055073047648148
3048.910258260267,0.2782627340771798,0.00028465552366381915,0.277978078553516
3049.907292290554,0.9187065708579346,0.9112182878781404,0.007488282979794208
3051.5227936178303,0.22922875268600848,7.993210074425277e-06,0.22922075947593407
3055.612928284657,0.0032650483580598457,7.368778019468148e-06,0.0032576795800403776
3060.7256459782293,0.07722990867532327,6.4701784052979665e-06,0.07722343849691797
3062.1504421925106,0.35514738890949193,0.3471192429898011,0.008028145919690812
3066.6026571033,0.011406973839765269,1.9703931704013155e-06,0.011405003446594867
3072.5861292468976,0.062272316988528004,4.864428884779217e-06,0.06226745255964322
3078.0835439135367,0.018570895699786396,3.419852396738773e-07,0.01857055371454672
3083.067543211424,0.03527139178211805,1.5283827872054258e-05,0.035256107954245997
3087.4030892498718,0.005333388330706604,5.391729753148238e-05,0.0052794710331751215
3090.0934006835055,0.0050261884780119495,0.00011819594859648294,0.004907992529415466
3109.1565558619714,0.050509488839123144,5.850233860752895e-06,0.05050363860526239
3112.9919301789946,0.12903560161206165,1.8968437963960398e-06,0.12903370476826526
3120.838309896539,0.40866073374292156,0.061650247649551876,0.3470104860933697
3187.708500347215,0.38506543815293903,0.041991993767467324,0.3430734443854717
3188.599650068322,0.38532306585958886,0.2387358689926311,0.14658719686695776
3217.163400875131,0.5978741963989344,0.4218864452652537,0.17598775113368065
3230.4615435785918,0.5570536794767066,0.39889104934438196,0.15816263013232462
3588.6623861408775,0.9926588730487834,0.778907979424593,0.21375089362419042
3679.337551218496,0.3086069150283651,0.0005405254854763003,0.30806638954288884
