frequency_cm1,total_intensity,isotropic_intensity,anisotropic_intensity
1.247542492238547,0.0,0.0,0.0
3.212022520842607e-05,0.0,0.0,0.0
1.6333632780323217e-05,0.0,0.0,0.0
1.1189350894515625e-05,0.0,0.0,0.0
1.4122728779895424,0.0,0.0,0.0
2.2068940082622692,0.0,0.0,0.0
29.042086744105763,0.0012202780089897271,7.112347606868442e-06,0.0012131656613828586
46.77123124724116,0.002542127181475496,3.247001701956841e-08,0.0025420947114584763
53.50226138057636,0.0009030300204833712,0.00010522258862349518,0.000797807431859876
58.5105895203123,0.001585602764324573,7.442994460209187e-05,0.0015111728197224812
81.50425522650129,0.001638305286351309,0.0001452996410274711,0.001493005645323838
93.69656370146264,0.0003542460315126075,3.979715970812557e-06,0.0003502663155417949
110.48477060838151,0.0018019290194571094,0.0010546372861606078,0.0007472917332965016
119.88395455889969,0.0020698022173254965,1.1087474575887571e-05,0.002058714742749609
126.99267001939123,0.003009228500637333,0.0001915668714940619,0.002817661629143271
146.70093461864047,0.0006492999704926212,8.197177386367524e-05,0.000567328196628946
161.85731644211606,0.0014672230592233317,0.00016797064270606657,0.001299252416517265
182.89038146656725,0.002568605962565911,0.0005849577567150041,0.001983648205850907
200.0287323857178,0.0005712572016077983,6.734976534222118e-08,0.0005711898518424561
202.15068669883806,0.0011886907264301986,0.00013270396330528024,0.0010559867631249184
215.23142971206332,0.0002771711859175289,0.00011876742213531414,0.00015840376378221477
223.49722035185727,0.00022205967414989718,6.984964959884064e-07,0.00022136117765390878
231.87437171736207,0.00021884295151775008,0.0001838201841352107,3.5022767382539374e-05
258.0161160233522,0.0014613180671911087,0.0013553846916360005,0.00010593337555510807
290.7901640113861,0.012227454719667805,0.007720913006055038,0.004506541713612767
296.38269145730305,0.0022491266868670244,0.0007520330513653496,0.0014970936355016746
310.0574060989172,0.013971507237607874,0.01226671330795295,0.001704793929654924
339.58310000927946,0.010779534330137407,0.010436835711886009,0.0003426986182513995
347.87485612800316,0.0026349343251121306,0.00022828516590663506,0.0024066491592054954
354.2819443381981,0.00585659027853032,0.004729473685868152,0.001127116592662169
388.5355237763641,0.0023689743418569896,8.983839436917317e-05,0.0022791359474878163
412.75797023066417,0.0077468604260347955,0.0033420442193185565,0.0044048162067162385
448.44872470686636,0.00489896988193546,0.0013790476580768421,0.003519922223858618
458.7144514558584,0.005690566095914996,3.263280360164595e-05,0.00565793329231335
461.643675269619,0.004467318401132667,0.0007691015069373252,0.0036982168941953417
523.0535163110234,0.005142222912571794,0.0020191808183363373,0.0031230420942354575
599.395966239315,0.016790354864632904,0.015007917772085296,0.0017824370925476072
708.9419504629118,0.0035694049032750207,0.0003338321084499093,0.0032355727948251115
753.7529761479526,0.016463265805503637,0.010079937729373196,0.00638332807613044
775.0348421326609,0.00641160452754388,0.005642768344866347,0.0007688361826775329
785.405703390088,0.009593219270141819,0.008885859951318726,0.0007073593188230922
794.3574687864615,0.00418287411291519,0.0019097225836536627,0.002273151529261527
813.1696336450378,0.00047553826475446863,0.0002722022609632434,0.00020333600379122523
831.7267032189579,0.003670201176607356,0.001489748826330823,0.002180452350276533
849.0145608891562,0.016178079234139206,0.014783813063457028,0.001394266170682178
869.7769248376206,0.0076608324142268406,0.006704199404617189,0.0009566330096096515
892.4864376951235,0.0243464053918219,0.005113473609516451,0.019232931782305448
902.765943264845,0.0663446272195929,0.04953649609391288,0.016808131125680022
963.659563949887,0.008197025149769924,0.0002033744029819508,0.007993650746787973
970.5918644283655,0.013223568072734296,0.00018001644593091166,0.013043551626803384
978.8326941175305,0.009433313200132534,0.0006145220424299662,0.008818791157702567
997.9451229744087,0.01889473684843081,0.00621394040038856,0.01268079644804225
1017.9896584358336,0.019679900011874946,0.0016283123140110785,0.01805158769786387
1057.848556873134,0.012755908433902572,0.00850417260439162,0.0042517358295109525
1065.2135058505287,0.012402367622144597,0.0015727053626149448,0.010829662259529652
1067.8380390873208,0.03238089397646615,0.0004437437531897769,0.031937150223276374
1092.136637927496,0.04192941779605439,0.028563597699117517,0.013365820096936876
1122.273146420137,0.019151187928749945,0.01537554756217224,0.003775640366577707
1124.802648638842,0.02851413155227949,0.023394154147484688,0.005119977404794801
1129.2074134274294,0.0200594699794188,0.01072982915105746,0.009329640828361341
1141.9578903235465,0.009152558357551925,0.00017155730426715354,0.008981001053284771
1177.990798633376,0.006075343892221384,0.00312915100509637,0.0029461928871250143
1191.4233060155311,0.019794276385600554,0.0010718236762357798,0.018722452709364776
1200.0494070906545,0.008501617970572192,9.390810048375907e-06,0.008492227160523816
1202.9746948800632,0.013953429135017027,0.0013172779388321623,0.012636151196184865
1208.997758148061,0.00633528569975559,0.00010971637866544974,0.00622556932109014
1259.7173463758236,0.0041785350405205745,0.0006372874665207463,0.003541247573999828
1264.014384491656,0.01356657464329528,0.003913370921953661,0.009653203721341617
1303.8814888409463,0.014874350909398197,0.0020196115816076532,0.012854739327790543
1328.1837312789637,0.027268995533641746,5.875498810498654e-06,0.027263120034831247
1333.6913271417068,0.013694695117663098,4.279901309745272e-06,0.013690415216353353
1336.0578571973783,0.01411340306579765,1.038145093514834e-05,0.014103021614862501
1357.6928817048824,0.00786758879589843,0.00043438909921247925,0.007433199696685952
1363.780778695208,0.01063311565587147,1.304093752277392e-06,0.010631811562119193
1380.1772401841718,0.009215172614387219,0.00019452015591883275,0.009020652458468385
1393.1170137364786,0.005635857412057799,0.0012539123989960311,0.004381945013061768
1400.7095656153758,0.005305225029194031,0.004344941243133746,0.0009602837860602847
1403.014826147883,0.005661608187557131,0.0009714755796727876,0.004690132607884343
1410.7559131143205,0.0007498897722718549,0.00032699592025420174,0.0004228938520176531
1417.534384063219,0.0016581736720000463,0.00028202267849122375,0.0013761509935088225
1422.4780780182662,0.0009777017615370204,6.2669620234594445e-06,0.0009714347995135609
1426.1078342320454,0.004004633910241584,0.00016669863447546716,0.0038379352757661168
1427.5909091670096,0.002427266138910956,5.256812212555658e-08,0.0024272135707888304
1480.1428216783097,0.03304060326006968,0.00030370677849011357,0.03273689648157957
1481.6611384880557,0.036902342684561745,0.0011591824820808283,0.03574316020248092
1482.556176180234,0.04650128702285371,0.0003778801879340119,0.046123406834919695
1488.6523136690187,0.04089801602747979,0.003178995082839911,0.03771902094463988
1490.9846219537321,0.018579170912752345,0.0005050372526351748,0.018074133660117172
1491.9933631656281,0.014369379512609994,0.0007389827459871936,0.013630396766622801
1495.0916906269622,0.018403294522122086,6.890230078610539e-06,0.018396404292043474
1496.3308194855485,0.0766738312844995,0.005449947845555898,0.0712238834389436
1497.8939547729276,0.031345029321289644,0.0010775240396230284,0.030267505281666614
1500.7959743232332,0.0021923956605962272,0.001401542401900333,0.0007908532586958941
1503.1772856204764,0.0017677915605812287,2.9910982109844323e-05,0.0017378805784713843
1505.314297131432,0.0027541940125217837,0.0013604155376370078,0.0013937784748847756
1514.3989466254427,0.005836748397513865,0.0013309654924616864,0.004505782905052179
1515.886354209254,0.005619044001910635,0.00010471002637880893,0.005514333975531826
1803.7189899111931,0.028011528753936102,0.01810241717914402,0.009909111574792078
1816.386516811044,0.013592489361154089,0.009891295764163812,0.003701193596990277
3053.026167387292,0.6919086980438364,0.665280182767728,0.026628515276108277
3057.5485256707207,0.7654274842979798,0.7237599322181856,0.041667552079794196
3062.5183905665504,0.49162826080077027,0.45078438126554127,0.040843879535229013
3065.3303225853037,0.6071443266102631,0.5043784827128467,0.10276584389741636
3066.077150143037,0.9893845754005514,0.9221792671522143,0.06720530824833708
3068.0976617942324,0.9599966160297999,0.8706216876622574,0.08937492836754252
3084.662086855621,0.1234434071814724,0.02463851774831316,0.09880488943315924
3099.6350597566975,0.5585480585761364,0.3817297550843161,0.17681830349182034
3100.866804414914,0.440544548736881,0.350480208803782,0.09006433993309901
3103.1148906775015,0.585158035094688,0.4763752480504958,0.10878278704419223
3108.1264995444108,0.445587163011137,0.23270943005026115,0.21287773296087584
3117.830513936009,0.27252255337880193,0.04028486786451508,0.23223768551428686
3122.841600539663,0.28709074034027493,0.011494039712317017,0.27559670062795794
3131.29428550403,0.29644223531138514,0.12656496935318018,0.169877265958205
3133.7877992857734,0.4081552574267716,0.15913084065292318,0.24902441677384843
3134.6024232939217,0.34323096335429704,0.08636597733410163,0.2568649860201954
3135.95258690144,0.17640984899144688,0.03820459437116434,0.13820525462028255
3137.646269163688,0.364132696951915,0.07407040709426732,0.2900622898576477
3142.378716988605,0.3475971940403441,0.0020271831334203504,0.34557001090692374
3143.9798471127333,0.28701963169886424,0.001003879828674777,0.28601575187018946
3147.23262514369,0.06275011675682564,0.01820278354732796,0.04454733320949768
3162.6731021339206,0.053496533112856716,0.017503673103179317,0.0359928600096774
3163.918536578516,0.09359565538663238,0.030758602519188872,0.06283705286744351
3171.1699303109326,0.16932463496935063,0.008457322520934733,0.1608673124484159
