frequency_cm1,total_intensity,isotropic_intensity,anisotropic_intensity
1.8114490884268126,0.0,0.0,0.0
1.1401181438240375,0.0,0.0,0.0
2.0023497033972215e-05,0.0,0.0,0.0
1.1537464141134687e-05,0.0,0.0,0.0
2.3309991187135617e-05,0.0,0.0,0.0
1.649721220403715,0.0,0.0,0.0
13.903685789979942,0.002858553790080268,3.717050574917256e-06,0.0028548367395053505
24.863836059203,0.00033400169890227476,1.732668684096276e-05,0.000316675012061312
37.12050117607988,0.00016482492039737043,3.615427923550225e-07,0.0001644633776050154
42.70830364745427,0.0012228078431202253,0.00010641547389398112,0.0011163923692262443
55.26047176971181,0.0009596989013854946,3.8414631071187435e-06,0.0009558574382783759
61.88365229852313,0.000842424377774363,5.7426201082696706e-05,0.0007849981766916664
68.5423244255817,0.0013801828022788672,2.829098422092994e-05,0.0013518918180579374
75.10815641222881,0.0024112786762796406,7.184793399009966e-05,0.002339430742289541
80.16881173575754,0.0014489223576875387,0.00020701509196502274,0.001241907265722516
88.00100564591745,0.0011175522471394523,9.65241532507298e-05,0.0010210280938887225
100.83553307743993,0.001891544357541177,5.668966741989473e-05,0.0018348546901212823
106.41324626146935,0.001640463984939243,0.000278041990694568,0.001362421994244675
108.87312138367582,0.002171320360061061,0.000849312642203177,0.001322007717857884
124.51131257067948,0.002483939846250949,4.221289133058304e-05,0.0024417269549203663
132.88933517695025,0.0027719951189021067,2.640613775200856e-05,0.002745588981150098
147.51597689994202,0.0018335630168216368,0.0008416287480748257,0.0009919342687468111
170.9478480815506,0.0005537634227148808,0.00039549795243908455,0.00015826547027579624
201.8543721264398,0.0012684539653854646,8.091208363853954e-05,0.0011875418817469251
204.13979325771817,0.00042023731489833257,0.00026731176434073583,0.00015292555055759674
217.4229216374036,0.0019701917279788626,0.0015426576295684243,0.00042753409841043847
227.85005631223942,0.0009214210837532629,0.00021359889473228887,0.000707822189020974
245.9356027527925,0.012519356026124624,0.007932379106948566,0.004586976919176058
256.7769534891443,0.0013666138538870115,0.00030701512382959117,0.0010595987300574203
289.4363883702904,0.003099792718096915,0.002281157835624531,0.0008186348824723835
301.99950567111364,0.011068281131017176,0.007856883349101706,0.0032113977819154694
315.2765383160061,0.009546642442466594,0.008212043540328494,0.0013345989021380992
337.1972611688744,0.0010996746054591435,0.00047050846169174003,0.0006291661437674034
349.92350948635584,0.005638449652917247,0.004107024498946601,0.0015314251539706462
376.0459123584646,0.002865203001909026,0.0010987162235988517,0.0017664867783101746
394.3567801041048,0.0061558850943361654,0.0037340903189841852,0.00242179477535198
429.5366971575689,0.003943849647818118,0.000820124207311978,0.0031237254405061398
444.1380818556706,0.003006820499088356,4.8074085035821394e-06,0.003002013090584774
473.027792997805,0.0037212503892108785,0.0006043733141428621,0.0031168770750680166
503.95118878179994,0.005267602623507053,0.002223781089878688,0.003043821533628365
518.1504070453777,0.004186896427869742,0.0023474958344099064,0.001839400593459836
590.6761185564617,0.004039517734915564,0.0012929891576673271,0.002746528577248236
605.0968630475984,0.005222026897849696,0.002129214975380771,0.003092811922468925
633.1247702000588,0.021821484249263102,0.018761006679102424,0.0030604775701606785
667.0035846208501,0.01148962916991813,0.003876119556049909,0.007613509613868221
681.5617245507988,0.008241842738621594,0.0007048959239705315,0.007536946814651062
713.6950333659261,0.001644224826587615,0.0004603633491833138,0.0011838614774043012
777.5928523952034,0.012066037879157979,0.007583584744008256,0.004482453135149723
797.1215974460257,0.0020899150216234195,0.0010883067871381605,0.0010016082344852593
800.2831840296415,0.009068099274741165,0.004326485651899373,0.0047416136228417925
812.7031739791934,0.0019920352218006612,5.4495624347754826e-06,0.0019865856593658856
834.9630030297682,0.00216977575497399,4.256309494329258e-07,0.002169350124024557
856.7656452672936,0.007858084313782234,0.002311447523004055,0.005546636790778179
870.1218870479004,0.03560179261160562,0.02623156828208708,0.009370224329518537
890.0648509372015,0.07595697507432549,0.05990399599528473,0.01605297907904076
892.7938859589218,0.0331894505468566,0.022834607932053465,0.010354842614803133
905.2791791296662,0.01040823213915681,0.003757185114503058,0.0066510470246537515
924.3291566027118,0.007288079035958,0.00040046688931449594,0.006887612146643504
952.9212828225733,0.013285634133378629,0.0019458518928624864,0.011339782240516141
962.0091426375661,0.01655878272388364,0.0054204614476536395,0.011138321276230004
983.5804740468736,0.051998799816835174,0.042647392547459265,0.00935140726937591
1023.5675975500825,0.005670149910350514,0.00016477013187944832,0.005505379778471066
1048.6014792641497,0.02089842666105931,0.010100683232462737,0.010797743428596572
1059.1610156626566,0.01095195263843568,0.0005601104861722997,0.01039184215226338
1064.8187662231537,0.020449496253203876,0.0034395961909497487,0.017009900062254127
1068.1485335009922,0.0028771368871352695,7.10019720351751e-05,0.0028061349151000943
1085.7144857683184,0.015263447842982286,0.0005696420508355834,0.014693805792146703
1109.4436821063675,0.009038615427909099,0.0029086022860718925,0.006130013141837206
1122.7054818117765,0.0047557972385581845,4.22888149324717e-05,0.004713508423625713
1123.356200651299,0.022528020107784673,0.01848920923601148,0.004038810871773193
1126.1589852955753,0.04937475393618739,0.044957495117852325,0.004417258818335068
1179.4259304424068,0.015728598568589765,0.001100113278277225,0.01462848529031254
1194.7231490517117,0.0031014538555324423,2.91862655775718e-05,0.0030722675899548706
1198.9667127571172,0.002969573832548855,0.0015172572053272352,0.0014523166272216198
1200.8725379019015,0.0023364324237745747,5.118010432722807e-05,0.002285252319447347
1225.5255277993292,0.0061645286210382805,0.0002575873082010945,0.005906941312837186
1250.0557209750145,0.005843656739746553,9.791905960818169e-07,0.005842677549150471
1274.0985599943006,0.01278144050195093,8.905888130633952e-06,0.012772534613820297
1280.2503511079046,0.022653204527511482,0.008490333073353711,0.01416287145415777
1306.094493428458,0.01165272815480387,0.0035376213945115306,0.00811510676029234
1317.6108964356235,0.014742469107090298,5.054518402930106e-07,0.014741963655250006
1334.0617934293973,0.01666597636179351,4.6779188850961494e-05,0.016619197172942548
1334.813037962375,0.015341503894183227,0.0006743719472714882,0.014667131946911738
1340.7133275417536,0.008686540620207713,0.00022726103636404882,0.008459279583843664
1384.65758484416,0.00534469197793706,0.0011432446136771207,0.00420144736425994
1389.0615815988267,0.0007214268325959684,1.9124305876001477e-05,0.0007023025267199669
1398.9937312345292,0.002673345094576768,0.0017191724431776534,0.0009541726513991148
1401.9939704070089,0.0029378938296192435,0.0004719017860505576,0.0024659920435686857
1407.0179259667962,0.008467402304875813,0.004756773241774434,0.0037106290631013783
1411.8771016119333,0.004227901771569408,0.0017365107501316822,0.0024913910214377265
1425.799665602432,0.004013069932591734,0.0003656503609790567,0.0036474195716126776
1428.8625664574238,0.004698235318654038,0.001529157018344796,0.0031690783003092424
1433.0382874174427,0.0032623189943061714,0.00028355380418381223,0.0029787651901223592
1459.3609196724044,0.02818022544541521,0.002082845167023871,0.02609738027839134
1467.7382481149257,0.024393888675142035,2.856870200311915e-05,0.024365319973138917
1470.1099054101235,0.019716288504690743,0.0008770033059126032,0.01883928519877814
1479.3566258647506,0.024706404417897388,4.366681234903815e-05,0.02466273760554835
1482.2244656526639,0.03251374136082711,0.0004792834159074027,0.03203445794491971
1483.3616042274216,0.026476639067008586,0.0011053486584808143,0.025371290408527772
1485.7269988863418,0.008637822890015691,0.0007240058395817925,0.007913817050433898
1491.0847146721972,0.053158867962501063,0.0025287711503491996,0.050630096812151866
1491.52002083335,0.06146212477239688,0.0034173174070773423,0.05804480736531954
1492.4450666358566,0.02588575304612837,5.447274133069846e-05,0.02583128030479767
1504.0303650470044,0.001171900280542214,0.0005012922008564973,0.0006706080796857168
1505.2255445224946,0.005584724418101884,0.004410766791212535,0.0011739576268893488
1505.5008894564874,0.005747165837585904,0.0002538558837949403,0.005493309953790963
1803.9169821697167,0.06813972726472199,0.06474783739190004,0.003391889872821946
1811.9235600991437,0.006683678483884147,1.804000474058233e-05,0.006665638479143565
1819.2479388096322,0.04162898770354718,0.03614468917620453,0.005484298527342649
1834.6672115820313,0.03447152725813546,0.030485606096418857,0.003985921161716604
3068.5823659570638,0.7877326922108292,0.72602146990397,0.06171122230685916
3068.8430009889144,0.9756936076416759,0.9033382203200713,0.07235538732160465
3070.647992992099,0.9332304247951069,0.857990003716057,0.07524042107904978
3086.204514605948,0.8328697659687716,0.8127665778744942,0.020103188094277327
3105.312589642247,0.78537170696507,0.6890714071931414,0.09630029977192853
3106.8404852359813,0.7143865614167442,0.5858533203798899,0.12853324103685423
3107.8249400387344,0.15677723464987292,0.12299087200171223,0.0337863626481607
3111.419958220338,0.6500476767583534,0.5501984433558319,0.09984923340252153
3134.2959905132725,0.4516124948820397,0.4292031558650621,0.022409339016977593
3136.6093298721107,0.3786798717460119,0.06572398682492712,0.3129558849210848
3137.488676509982,0.3605381692696126,0.07295691900329637,0.2875812502663162
3140.655107707294,0.3045675340908437,0.060661021297181233,0.24390651279366243
3143.4127758232285,0.29845969894768526,0.0005867366820928638,0.2978729622655924
3144.685206107125,0.3502900165548088,0.0011899860006640704,0.34910003055414474
3149.0579729135357,0.3156796024865434,0.012306463904160627,0.3033731385823828
3155.1849604642443,0.19562084518846806,0.0161768042499649,0.17944404093850316
3160.864520368724,0.144700598443721,0.017271676799737533,0.12742892164398345
3165.572908821263,0.09660719588615271,0.03227801116399127,0.06432918472216145
3165.9351493500185,0.10183951476622449,0.02203263741615224,0.07980687735007226
3172.3422360300315,0.12048181104237453,0.03864207617385819,0.08183973486851634
3194.1770368471607,0.1145171144159693,0.0003381530193028233,0.11417896139666649
3194.515905384817,0.2524589434465901,0.02642638781731181,0.22603255562927826
