frequency_cm1,total_intensity,isotropic_intensity,anisotropic_intensity
1.0686364079230148,0.0,0.0,0.0
0.6127992465684144,0.0,0.0,0.0
7.636704659278845e-06,0.0,0.0,0.0
6.651388094971141e-06,0.0,0.0,0.0
1.6276609361007892e-05,0.0,0.0,0.0
0.9070331075119538,0.0,0.0,0.0
10.381963000824639,0.0020868776069091492,2.7742289211241167e-08,0.002086849864619938
12.026888029715819,0.001081737169760282,0.0001129104213254389,0.0009688267484348431
18.023793173204194,0.0005642967733623964,2.2420469514594865e-05,0.0005418763038478016
29.926161567047842,0.0003166361150624786,3.103550016290096e-06,0.0003135325650461885
34.56064097534449,0.0007903417018335708,2.1782275038734473e-05,0.0007685594267948364
38.16635257032105,0.0007021600761549222,2.5916919808177233e-06,0.0006995683841741044
49.14662874467844,0.000780088912307672,3.647981141379395e-05,0.000743609100893878
55.46059493418938,0.0016193343692047575,0.0001840814124895984,0.001435252956715159
65.08647176072613,0.000565180748491211,7.511815025966552e-05,0.0004900625982315456
72.54253815502383,0.0017777883563350838,4.4998500264759877e-07,0.0017773383713324362
75.29680403123129,0.0008903019200462704,0.00010659284477897363,0.0007837090752672968
85.17965006032836,0.002154664446004316,8.924262781477904e-05,0.002065421818189537
91.87432757574108,0.0020920260706760933,5.6395265995338255e-05,0.0020356308046807553
97.20338325529129,0.001846731795109175,0.000574337739710723,0.0012723940553984521
108.45242971589394,0.0001551135881511309,3.894634783128296e-06,0.0001512189533680026
124.2646622083565,0.0004990236652378004,4.247967614790148e-05,0.00045654398908989897
126.74821391289925,0.001026657742152359,0.00012783349594968642,0.0008988242462026725
133.84779150059015,0.0011574664033481706,0.00014655470528251917,0.0010109116980656515
144.06260659731726,0.0032668249723454136,0.0025460303866966026,0.000720794585648811
181.03435565229287,0.000353876130179282,4.913720932554002e-06,0.000348962409246728
198.70905828962188,0.0012946976226015277,0.0010559122985258317,0.0002387853240756961
206.30074520663763,0.001218397304374783,0.0009063379932606048,0.00031205931111417804
210.56401935670303,0.0009922414541853892,3.5244689835954723e-06,0.0009887169852017938
228.96102797747497,0.004374236878090566,0.0032317093448974463,0.0011425275331931196
241.48427039546456,0.00399133630317153,0.003313939114370322,0.000677397188801208
246.83924717119964,0.0003952183746609889,0.00026112468042499863,0.00013409369423599026
248.7628186194873,0.00032391792285328935,2.9860910909856098e-05,0.00029405701194343324
252.2200370388017,0.0037749576787110945,0.0028269269756859556,0.000948030703025139
272.59758355424054,0.011676219418900211,0.009196284392281536,0.0024799350266186747
309.4264577320422,0.012710367955814195,0.010251188898398142,0.0024591790574160543
319.01785759083083,0.0017580736437469088,0.0010111778713078104,0.0007468957724390983
335.7864553700205,0.0026050582395832278,0.0004949078094749263,0.0021101504301083017
345.270113347174,0.0037814588545002172,0.0025029524342056308,0.0012785064202945865
353.9046867079037,0.0021914303830807644,0.00018849254130619522,0.002002937841774569
407.45420396986117,0.005103978042813728,0.0009671515249164289,0.0041368265178972985
410.7067000486965,0.0050684235652991875,0.004555966817743367,0.0005124567475558211
420.356434132621,0.0012730679496846628,0.0006185577062976207,0.0006545102433870421
450.92873470296564,0.0065104053819398,0.0012068373814087866,0.005303568000531013
466.0485646297691,0.005954336234428904,0.0033117879976146064,0.002642548236814298
477.7979588927978,0.008825370521046271,0.00038458179148191635,0.008440788729564355
503.12426694275916,0.005099912611386147,0.0017458755524012166,0.0033540370589849305
515.9997036056426,0.003934736903119843,0.0007923852759970925,0.0031423516271227507
574.8982698158162,0.004887888836339787,5.2924097665929296e-05,0.004834964738673858
584.2675487152738,0.010042382999444276,0.00910910771882324,0.000933275280621035
628.7092268821426,0.004121343540900252,0.0015092657734849574,0.002612077767415295
664.0450689068032,0.008128465506503132,0.0010537471124514313,0.007074718394051702
710.7929447131326,0.0036358891863696036,0.0010355211474845551,0.0026003680388850484
735.2124853192324,0.0012260220396803393,0.0010470422039891862,0.0001789798356911532
742.7918874266046,0.0016138289217759658,0.000335818519718128,0.0012780104020578378
745.0839634612472,0.002214453268343226,9.202267030927389e-05,0.002122430598033952
745.7440253261296,0.0022858348581231494,0.0017475740478073102,0.0005382608103158394
796.8387507477644,0.012306123200958918,0.007713255908535384,0.0045928672924235355
801.5315239857875,0.0034733651224835137,0.001416375107661812,0.002056990014821702
810.0138966438575,0.003579044920727303,0.0003936092173635936,0.003185435703363709
823.504257456027,0.0017938520426911307,1.6120566691684723e-05,0.0017777314759994459
856.17976261123,0.025888998636322668,0.024349914215989883,0.0015390844203327868
883.9682591011381,0.004086307989437209,6.082761850846679e-05,0.004025480370928742
908.9157795742855,0.008338320302532974,0.002381672792094575,0.005956647510438399
919.9986909979542,0.009811711179589077,0.00376117279013336,0.006050538389455717
921.3642880514351,0.01435056613295485,0.00039947819178410464,0.013951087941170746
923.1832669686038,0.05716559871727804,0.040790313200481175,0.01637528551679687
927.5721431766505,0.0930653282041578,0.06885405037760894,0.024211277826548853
948.6794176287971,0.002500393357131622,0.0010162165046114203,0.0014841768525202018
962.831416893999,0.0010916974466037672,0.0007978149211447504,0.0002938825254590168
965.9761994640643,0.0006881966233735455,2.2005020132377573e-05,0.0006661916032411679
969.2473644975541,0.02655672146981039,0.02055839540926572,0.005998326060544673
1002.7426041805642,0.015473329844813873,0.007072874110874349,0.008400455733939523
1013.3825656919589,0.011950649281865245,0.0011911839402888428,0.010759465341576402
1030.984414529101,0.0049049759927370234,0.002086423411065957,0.002818552581671067
1053.2255236598307,0.00846732923993758,0.00374962220958415,0.00471770703035343
1061.808945594296,0.02447542803150998,1.2025561059873922e-08,0.02447541600594892
1063.57133682563,0.005846293332309259,0.0004896486430495291,0.00535664468925973
1079.1674580601484,0.015924647048489372,0.006447903850295781,0.00947674319819359
1084.6281582092302,0.03292451577220786,0.0010239502282956422,0.03190056554391222
1086.267479817931,0.02612493304940181,9.009499018187724e-05,0.026034838059219932
1088.498120486796,0.031713786868991435,0.00114261067930802,0.030571176189683417
1113.9676658722915,0.002571450158947734,3.2166152198318825e-05,0.0025392840067494154
1144.858107984017,0.024790587310124262,0.010749316502186204,0.014041270807938058
1145.1303692995123,0.10717272431518335,0.09527228505177474,0.01190043926340862
1145.5019289399468,0.04183388003067316,0.0279245064453188,0.013909373585354361
1192.1437687186906,0.02596055295743384,0.009614615144665663,0.016345937812768177
1197.6045892230345,0.0037954195865573205,0.0004187061026237399,0.0033767134839335806
1198.454884689269,0.0026883396952508496,0.0012745857278802257,0.0014137539673706237
1199.151829756047,0.003717057451147763,0.0007419414969121416,0.0029751159542356215
1211.2862075337794,0.02132292115182431,0.00015461538136061413,0.021168305770463698
1232.9513962443366,0.009792208967917168,0.0002459152858279595,0.009546293682089209
1260.7744679328716,0.0040508571832592105,0.00019359844360658916,0.003857258739652621
1264.558161423933,0.004953924823336394,0.0011161468385742228,0.003837777984762171
1271.062898386591,0.001270004892631094,0.00018381609316989577,0.0010861887994611983
1277.798386419105,0.0022350011507543295,0.001096168739006041,0.0011388324117482887
1287.6083175894607,0.003249435657150028,0.00010000491119320355,0.0031494307459568245
1298.0030317121639,0.001517998657217909,0.0005221788177537668,0.000995819839464142
1299.4250460947167,0.0035788898571179695,0.00043893393976866053,0.0031399559173493088
1306.4659272239483,0.005696303576191354,7.791474548713075e-05,0.0056183888307042235
1328.7989643782848,0.01497878934471851,0.0017118889609679712,0.013266900383750538
1329.7168321316096,0.031156217728249003,0.0009901936568726655,0.03016602407137634
1331.2202393312425,0.014828249325690542,0.00028520694258943633,0.014543042383101105
1332.5138618188212,0.03731391017196642,0.001401744323517065,0.035912165848449355
1336.7287483692448,0.03295402576380418,0.0012746637459497422,0.031679362017854436
1338.7401594012651,0.03578265178112466,0.0002560150815451533,0.035526636699579506
1346.0521991662388,0.025192154650954514,0.006978295708239156,0.018213858942715357
1369.8860587176875,0.007635398007931539,0.0028810638956640517,0.004754334112267488
1381.7223631656866,0.010279902616071233,0.0013048182603647635,0.008975084355706469
1389.73986170692,0.006706691999321357,8.173340597450564e-05,0.006624958593346852
1391.4425764529265,0.005359963972032353,0.0010434661667691962,0.004316497805263156
1396.649759202856,0.008354378146209396,0.0037266376664059804,0.004627740479803416
1410.8725108645951,0.01109152713756054,0.00212751975434971,0.00896400738321083
1413.3390443947521,0.00619907182705744,0.0030431054244498498,0.00315596640260759
1414.7871754961093,0.0005964095132930497,0.00012051645545025116,0.00047589305784279855
1415.5689522502937,0.0009064383361001675,0.00021667798021352282,0.0006897603558866447
1431.9015297158212,0.003112808218146836,7.702675463531447e-06,0.0031051055426833045
1433.566005407551,0.002185646812475121,0.0011418621293977623,0.0010437846830773586
1435.4887585715232,0.002376593711003429,2.245906757219889e-05,0.00235413464343123
1447.5543396718244,0.002190730758123232,0.001142219194787392,0.0010485115633358396
1460.2330972761563,0.03453206994227165,0.00014977902244848147,0.034382290919823165
1482.0678962383834,0.07476435787254704,0.0031583892072884357,0.0716059686652586
1485.072906365148,0.017137809576810933,0.0026076908457095043,0.01453011873110143
1485.4565957490922,0.04188572059549122,4.119514647605774e-05,0.041844525449015166
1486.4133840276768,0.030363658709776174,0.00402146257974538,0.026342196130030793
1488.5918873360608,0.04759895912728697,0.00826248003580788,0.03933647909147909
1492.4254300453053,0.014480285759238867,0.0003672229039910476,0.01411306285524782
1493.2232916286198,0.01735846068569926,2.036482220215646e-07,0.01735825703747724
1494.6296584325262,0.030389741433986827,0.0027124082386812873,0.02767733319530554
1495.3772330312256,0.025537909676635516,0.0001517297077738303,0.025386179968861687
1496.2115622727522,0.024627773234730536,2.6694880245860508e-05,0.024601078354484676
1496.3431471857014,0.011459175999538048,0.00021474307508136375,0.011244432924456683
1499.5856151995413,0.02474706393767946,0.002770798790073143,0.021976265147606318
1505.7661368077306,0.021509320253461337,0.004939467933153194,0.016569852320308144
1506.2169263550334,0.0019827675681957173,0.0014037769472351946,0.0005789906209605227
1509.2990451389396,0.0030154253151474563,0.0005204338006945914,0.002494991514452865
1789.4941281864978,0.04442909775851614,0.03819041934212522,0.0062386784163909175
1799.721415108744,0.004739362977557266,2.471636003549005e-05,0.004714646617521775
1829.5408571481476,0.06600494347544933,0.043946585861900755,0.022058357613548567
3037.568041281957,0.6737650086222908,0.6029348378250085,0.07083017079728232
3039.752313922896,0.829658462740275,0.7299156760191418,0.09974278672113326
3041.200486826793,0.8193577943666115,0.7407614260889874,0.0785963682776241
3050.155465373442,0.605640746503292,0.5921368376969264,0.013503908806365624
3052.022430948366,0.7346557220828571,0.7158970225727933,0.018758699510063807
3053.0462309699788,0.5344119657092709,0.5203305545597486,0.01408141114952224
3059.4908784202134,0.7103702352535353,0.6329409356473371,0.07742929960619818
3063.7550357811856,0.23199236199587459,0.18959700823584086,0.04239535376003371
3066.4438476578457,0.8331396554675335,0.7170458973617595,0.11609375810577405
3071.024691799227,0.5726834441803477,0.030075289034319604,0.5426081551460281
3072.7161818562327,0.4913635685261267,0.043646585212233004,0.4477169833138937
3074.9439968513043,0.3495883090087425,0.09826308463919367,0.25132522436954885
3094.3671889469906,0.03442260615710917,0.011688658471481136,0.02273394768562803
3095.856032466774,1.09480155826766,1.0439071041316517,0.050894454136008245
3097.2563211072898,0.16829937794583677,0.10171881802906102,0.06658055991677575
3097.950218776649,0.5814943523684813,0.571469742307803,0.010024610060678379
3101.025013460554,0.3763103518360251,0.30312905459383854,0.0731812972421866
3104.421572670503,0.10311357419119771,0.07755049558885206,0.025563078602345655
3104.8028764507662,0.07023910334705923,0.004604504430169454,0.06563459891688977
3109.2994976501236,0.013892825861633281,0.0029811297674979895,0.010911696094135292
3117.9405297408093,0.22499924163491367,2.14713621430069e-05,0.22497777027277066
3118.91069139988,0.0902355534241648,0.01629707673275838,0.07393847669140642
3119.377039365649,0.1780294630517405,0.0042960347582405006,0.1737334282935
3125.5237101803814,0.32533611532186457,0.002128821822191835,0.32320729349967275
3126.0705739755094,0.5341838549230334,0.16262071610356485,0.37156313881946856
3126.6871221207334,0.4074823592632475,0.06662547564328983,0.34085688361995764
3146.2010201511353,0.11395390288011481,0.012306309689968733,0.10164759319014607
3153.9188567924502,0.14650520498932573,0.03726759240127179,0.10923761258805394
3154.5956331199577,0.19665782395524617,0.03143124235652071,0.16522658159872547
3155.7160695860184,0.11958296416383318,0.009359960639029543,0.11022300352480364
3160.9103883473217,0.25296059393285975,0.04924602805709959,0.20371456587576015
3795.1313177986185,0.2555084682707822,0.17717491306477684,0.07833355520600538
