frequency_cm1,total_intensity,isotropic_intensity,anisotropic_intensity
3.0515545620440913e-05,0.0,0.0,0.0
6.428208386053194e-06,0.0,0.0,0.0
1.1427014691302598e-05,0.0,0.0,0.0
0.630068473430394,0.0,0.0,0.0
0.9021253068556424,0.0,0.0,0.0
1.597774634039685,0.0,0.0,0.0
12.141814999170265,0.004418523688862802,9.988341298073651e-06,0.004408535347564728
19.608355391071452,0.0007177090407811922,6.951587405296495e-07,0.0007170138820406626
23.39258871363651,0.002314203324060168,7.944404671059533e-05,0.002234759277349573
26.04515478749491,0.0032356218640898857,7.948153410977424e-05,0.0031561403299801114
29.91257351632394,0.00107817670801933,1.1425179912182269e-05,0.0010667515281071478
38.07961176820056,0.001960737232821065,7.709864861631681e-05,0.0018836385842047484
52.1882013967355,0.00046570287270736527,1.757571300670889e-05,0.0004481271597006564
55.483891468410285,0.0008462124931584154,7.75146675584372e-06,0.0008384610264025717
60.531584967768,0.0022368179463472166,0.00017534307020999185,0.0020614748761372246
64.84162038687116,0.0027096628892118607,8.96722884527523e-05,0.0026199906007591083
68.8062600824917,0.0007470444486681853,2.6057561136211717e-06,0.0007444386925545641
70.98060530135216,0.00047388580358977324,0.00019008605284978445,0.0002837997507399888
74.78033437263797,0.0011607716504595934,0.00022432698988539325,0.0009364446605742002
80.58599745261633,0.0011313316740904388,1.172885349379731e-06,0.001130158788741059
89.8689350504928,0.0008983518304845821,0.00046817644274665997,0.00043017538773792215
103.4374488058554,0.0009308985899428579,0.0003680186623721129,0.000562879927570745
106.64622979566812,0.0012386958845835502,7.491883000189735e-05,0.001163777054581653
116.95267171072199,0.0015607232779651034,0.0003845687682299903,0.001176154509735113
121.15480947007003,0.0006366484393533035,0.00012114120374531654,0.0005155072356079869
135.34607544951945,0.002370039751262846,3.054693958970751e-05,0.0023394928116731387
138.0405364548155,0.0018731072965020056,0.0002470988986589229,0.0016260083978430827
146.57753019618517,0.0014170772971981486,0.00021695968477677271,0.0012001176124213759
162.1765289347462,0.0007227149035403998,0.00016975383230377215,0.0005529610712366276
166.48132191091346,0.0028740797428381875,0.0016007413726261274,0.0012733383702120602
190.12685659306013,0.00048264435317330577,0.0004064630789230271,7.618127425027864e-05
198.20879134762765,0.0026754548928015374,0.0014833009606258511,0.001192153932175686
213.5445729335389,0.008167043495689233,0.007412612741444306,0.0007544307542449269
236.6568617568407,0.0009359920368689647,0.00016895392817318814,0.0007670381086957765
244.59526592902043,0.00022700557436519143,6.156960925364819e-05,0.00016543596511154325
247.57886693413,0.005235501795416454,0.0023751784493792234,0.0028603233460372307
249.36586229274326,0.0004143701575018208,0.00025555983396805996,0.00015881032353376082
257.29384339503054,0.0016081215026840458,0.0004084485384652811,0.0011996729642187647
274.51213774077564,0.0025706956005499227,0.000733776596980322,0.0018369190035696006
279.8553354500659,0.0010778773160530272,4.360896554143284e-05,0.0010342683505115942
287.38693394085107,0.012328164925672343,0.0036557561645007646,0.008672408761171578
312.75529986629755,0.005658427993427779,0.004745532210639527,0.0009128957827882521
319.6160124022193,0.009649275150926687,0.009114746042699727,0.0005345291082269595
322.5848201350853,0.004080339926829528,1.4983475204908754e-06,0.004078841579309037
357.5458651323308,0.0018346056451811208,1.185670373135941e-05,0.0018227489414497614
389.83203665382393,0.0035172391774366692,1.5287482881614775e-05,0.0035019516945550546
399.6682227634416,0.011166181904157142,0.007416402366431274,0.003749779537725869
419.8961404090736,0.0021454259090963315,0.0017330251091469448,0.0004124007999493869
455.3479945242887,0.002172166034446699,2.3088457069055534e-06,0.0021698571887397936
478.12532214380093,0.0021482984799460476,0.001074406107805455,0.0010738923721405925
488.46344133543363,0.006476796028978866,0.002734993537357594,0.003741802491621272
546.3529136179745,0.010675792628914065,0.000369965629349202,0.010305826999564862
559.2187328673174,0.010791507243609699,0.006910169277959411,0.003881337965650288
579.6242577656374,0.0050345498463637995,0.002758105635694285,0.002276444210669515
596.6599856866918,0.017907046504876168,0.014126788546147748,0.0037802579587284195
598.8794440596612,0.003195840321571411,0.002104178705251696,0.001091661616319715
668.390109250115,0.023385192666068623,0.02069730761671006,0.0026878850493585633
692.1655891525487,0.011638474500002199,0.003883887481506751,0.007754587018495448
695.9449465537766,0.011925468947926154,0.009253446676289051,0.0026720222716371035
738.045438453952,0.006592947815966465,0.005269559155710329,0.001323388660256135
742.3711729934372,0.0033772042888596137,0.0028341903608438183,0.0005430139280157956
745.9767226027103,0.0013191473410452989,0.0011490855591902087,0.00017006178185509027
748.3618988481372,0.004007895523903964,0.0034452575950439323,0.0005626379288600317
769.2483882723388,0.0022345358596538717,0.0009110778390982042,0.0013234580205556674
801.0409406400312,0.0018566132465621392,3.864370197293078e-06,0.0018527488763648461
821.1838334630119,0.0008830863420466246,2.716243305937834e-08,0.0008830591796135652
833.4992067910583,0.0032279343911231434,0.0006096261890461748,0.0026183082020769686
850.5525627721281,0.002383204910647568,0.00016499114638732643,0.0022182137642602416
861.324003445313,0.05817498605618239,0.03783737266485029,0.020337613391332107
870.9916804581962,0.026834306751499656,0.021335248489003235,0.00549905826249642
888.9041064707947,0.021504851833224703,0.015076768082556145,0.006428083750668556
911.649806844002,0.031835839710443625,0.024866813405447323,0.006969026304996304
921.6153246243593,0.05677799324914388,0.04589559271267433,0.01088240053646955
923.1715825093038,0.017123296821291392,0.0030977806334605267,0.014025516187830867
942.0606741508822,0.02626608944592917,0.005956868015152633,0.02030922143077654
956.9383030709054,0.0004042173167802313,2.5189952417225428e-06,0.00040169832153850874
958.8942145426645,0.009112079471939009,0.005533772551549987,0.0035783069203890214
975.4959843898228,0.0074299986096850465,0.0019201606364343668,0.00550983797325068
987.6107699386989,0.0024692759181639,0.00036130138208805815,0.0021079745360758416
1010.8211235893519,0.008083381501120366,0.00016685862740719573,0.00791652287371317
1024.5130833029643,0.002585867517854761,0.0014108975286396166,0.0011749699892151444
1029.4900030055414,0.010000849564979025,0.006758461277611756,0.003242388287367269
1037.731746228662,0.005929624973590408,0.0007919084836928977,0.00513771648989751
1054.19119457039,0.015933683281887948,0.011221677638278754,0.0047120056436091955
1060.5048112606419,0.0029513105731285186,0.00027292419143652545,0.002678386381691993
1064.8941425733697,0.045015149018131355,0.02183679018996918,0.023178358828162174
1066.0215112937815,0.014656298072048704,1.4996584664435953e-05,0.014641301487384267
1084.6894464230538,0.020033169467540007,0.0014999830916852088,0.0185331863758548
1090.247170942217,0.050723707028421335,0.0020673728419821815,0.04865633418643915
1091.683902602386,0.015581639247253923,7.899520631217765e-05,0.015502644040941746
1099.7556479504822,0.025862409053333067,0.0009633271136664684,0.024899081939666598
1115.9411033271917,0.01631041886624559,0.0002161607228457411,0.016094258143399848
1145.0072954700101,0.06117048044181624,0.04945125599191905,0.01171922444989719
1151.470115878602,0.01544592217349828,0.0002709681121213423,0.01517495406137694
1153.3851114628696,0.03294922460302041,0.030057420308712328,0.002891804294308084
1159.383529923921,0.0239135750178499,0.0030471707305624973,0.020866404287287404
1173.349119054406,0.020715404860261598,0.01260613501882381,0.00810926984143779
1182.300846820151,0.0028108671313173874,0.0005446576181258326,0.0022662095131915547
1196.899216700388,0.0015126511195591274,2.5688552066794483e-06,0.001510082264352448
1226.534679045852,0.031059318632963507,0.003858826217715747,0.02720049241524776
1236.889288102196,0.005732982963600716,0.00021425249537707335,0.0055187304682236425
1244.8819686130623,0.005438441492516273,0.00217596826246399,0.0032624732300522833
1257.8964525916065,0.005036928646679343,0.000458587486597784,0.00457834116008156
1260.637011519526,0.004552233532946232,2.398340413853906e-05,0.004528250128807693
1268.1521085715722,0.0034300299732789212,2.001904213413515e-05,0.003410010931144786
1281.0979379793373,0.01604465065599638,0.0009966781281514601,0.01504797252784492
1292.6679907649545,0.003396227488792759,0.0019578728772775005,0.0014383546115152585
1294.7322878644154,0.009331097459015128,0.0004331105616617176,0.00889798689735341
1301.1419315600874,0.002513943276596598,0.00037312760871202144,0.0021408156678845765
1323.5695059100647,0.008903029458334613,0.0061998378607243,0.0027031915976103143
1325.409588491586,0.002043842980656874,2.447918287022125e-06,0.002041395062369852
1328.6346385842717,0.006362263834767043,0.0001093268813719576,0.006252936953395085
1330.2222878640473,0.040359158786603226,0.0009586808157598253,0.0394004779708434
1331.7811441580368,0.013190493131364804,5.6565769396035765e-05,0.013133927361968768
1336.4045760006143,0.03247670021402295,0.0038199822827922033,0.028656717931230747
1345.1415072330105,0.028077580827081,0.0038564413538949723,0.024221139473186028
1347.9877902656183,0.015183759373738153,0.0037909546444333123,0.01139280472930484
1370.1647708293185,0.008793423825053584,6.179030294450568e-06,0.008787244794759133
1384.3372428548794,0.006686057311061566,0.001054261173419654,0.005631796137641912
1390.7281129147775,0.007772131187840179,1.5827718727859316e-07,0.0077719729106529006
1395.746647096645,0.0016169084302047232,2.595072565417248e-06,0.001614313357639306
1397.432891235566,0.017267222829065232,0.006111261869354205,0.011155960959711025
1413.2168825093906,0.0023523958324530602,0.00027793806168275643,0.002074457770770304
1414.9705839534054,0.0030338225852169004,0.002015467622313952,0.0010183549629029485
1417.000879791271,0.0059877561462158176,0.0022355699420784454,0.0037521862041373726
1417.2795681472655,0.0013898703364753527,2.2536668569103897e-07,0.0013896449697896615
1425.0715785166615,0.0009782900864978006,2.783105262732985e-06,0.0009755069812350677
1428.1118506192477,0.00463076371223268,3.285359100256454e-06,0.004627478353132424
1437.1019671276545,0.008750183780758423,0.0016468044022236845,0.007103379378534738
1461.1036557341579,0.01639411366474157,2.326297080067048e-05,0.016370850693940897
1468.3952719611452,0.02565072580274929,0.004003706522607391,0.0216470192801419
1469.3836480797586,0.0369755568205789,0.005336312623590742,0.03163924419698816
1470.2258686272967,0.014697378832542246,0.0001764601424307196,0.014520918690111526
1483.518631624763,0.05662415783223963,0.002862513596559423,0.05376164423568021
1485.457265807553,0.033839786369348444,0.00011680778300412558,0.03372297858634432
1486.306810837399,0.02110999054067083,6.897977794864584e-05,0.021041010762722183
1489.4328530881867,0.02688024620964857,0.0016214802821396554,0.025258765927508912
1490.1293989818269,0.033094361993203154,0.0022717554065240305,0.03082260658667912
1492.8274598321352,0.006773600019808028,0.0014409961133544332,0.0053326039064535945
1494.5536792574474,0.02166161842339682,1.4333904934137674e-06,0.021660185032903408
1494.8834127426803,0.02803736748919679,7.896804861231122e-06,0.02802947068433556
1496.2902969537547,0.026971950407702856,4.690221992711768e-05,0.02692504818777574
1496.741999329975,0.014123556682416681,0.0008687648345231318,0.013254791847893549
1501.360467198082,0.016879782514231795,0.0002104477184598221,0.016669334795771974
1503.8518179646671,0.0026452332827588123,0.0006786117448334095,0.0019666215379254026
1507.750014850026,0.003271428805659153,0.0024128024632836405,0.0008586263423755125
1510.8874210946117,0.006727025373377522,0.0003817895527719173,0.006345235820605605
1520.6142449502224,0.013869808193386686,0.0002014326230655047,0.013668375570321181
1798.6320888829598,0.05079128367857759,0.046091408670862095,0.004699875007715493
1829.9339982699696,0.01893263202987891,0.007876489330020447,0.011056142699858464
1835.9697816904138,0.03425699215599297,0.01868099310308261,0.015575999052910357
1845.6028362329162,0.11016559416110683,0.07222026747473756,0.03794532668636927
3037.6419189443222,0.2074936347936454,0.14966874754414372,0.057824887249501675
3037.654810648934,1.2703746987736653,1.1960028613792757,0.07437183739438952
3042.6515926812485,0.4563365478011785,0.3860198443888802,0.07031670341229829
3047.666428155403,0.37496509191288563,0.22141660720355746,0.1535484847093282
3050.683079862387,0.12480262502644285,0.10959181055963772,0.015210814466805122
3051.907109842245,0.6092947442921713,0.5876156315589305,0.021679112733240816
3053.5666447838894,0.5628220191360134,0.5485770763606799,0.014244942775333504
3054.0240664265525,1.403887283795721,1.3852334853823587,0.018653798413362344
3058.470610674717,0.6310944193657584,0.4594890323387027,0.17160538702705563
3063.2439086238014,0.6984045573970024,0.5782192833659617,0.12018527403104062
3068.952221528938,0.447803871480981,0.1242481807788281,0.3235556907021529
3072.7378152058627,0.37722697422781093,0.10100091826142651,0.2762260559663844
3085.0863772732946,0.7058270838800986,0.6871326591229755,0.018694424757123154
3087.983839996725,0.4112355906509803,0.3796637013709323,0.03157188928004799
3091.5906486593567,0.3731315651228309,0.013747323960858602,0.3593842411619723
3097.7888105528796,0.6112005648860506,0.5396068580915632,0.07159370679448746
3103.1855827938357,0.07137953336397912,0.0007028479030036967,0.07067668546097543
3104.619847805565,0.05507971718135626,0.0038964963331010885,0.05118322084825517
3116.394839611587,0.06223057394969955,0.0024040319957895017,0.05982654195391005
3119.3456586608436,0.19933883743964823,0.0028773573453713904,0.19646148009427683
3121.58665391172,0.09708532761137705,0.013252310357168366,0.08383301725420868
3123.7661900124954,0.3670873629075829,0.29032864993114,0.0767587129764429
3124.433232669695,0.4945511904752101,0.16589273560809312,0.328658454867117
3127.124169856693,0.25875229402863625,0.035733703283085935,0.2230185907455503
3129.0876474055867,0.39536733464793583,0.05869946196185229,0.33666787268608356
3129.728098992551,0.3867556160211072,0.060507983896352056,0.32624763212475516
3136.3574989690087,0.330386956341173,0.1461152873044767,0.1842716690366963
3144.1147769756335,0.1279276908503294,0.07493183576615756,0.05299585508417186
3152.3879767145413,0.09962930158403091,0.001310748303751399,0.09831855328027951
3154.4955985984357,0.20089042829840825,0.013526488694823573,0.1873639396035847
3161.6293579062663,0.538366307009881,0.4483340268202862,0.0900322801895947
3188.629414662164,0.09328447619997852,0.00013740815428387937,0.09314706804569464
3190.6665772895353,0.21323784780443333,0.015140550088771684,0.19809729771566165
3222.9099776458024,0.07906796156305346,0.011115066787016754,0.0679528947760367
