frequency_cm1,total_intensity,isotropic_intensity,anisotropic_intensity
1.5041769608094333,0.0,0.0,0.0
1.0092316494061375,0.0,0.0,0.0
0.7640446635025785,0.0,0.0,0.0
2.6351121963586117e-05,0.0,0.0,0.0
1.4003556171120126e-05,0.0,0.0,0.0
2.1280451128370377e-05,0.0,0.0,0.0
5.327948204067517,0.002760347955652736,7.81712938798128e-08,0.002760269784358856
5.665490855846894,0.0027367965310218616,1.2196461898861494e-07,0.002736674566402873
10.636401663135134,0.0033359551997682465,9.788083479292446e-05,0.003238074364975322
25.367467373366424,0.0007827156710409343,7.777369881408413e-07,0.0007819379340527935
25.64995503850999,0.00041784816811881186,1.75615592508823e-06,0.00041609201219372364
25.854117759594413,0.0008997312016973607,8.339850298953909e-08,0.0008996478031943712
32.17529778719127,0.0007278706087372132,1.5518683195133684e-07,0.0007277154219052619
32.41680229858325,0.0007202602711958753,1.2709904491115156e-07,0.0007201331721509642
37.20339664360636,0.00014881226461696016,0.00013369793977393438,1.5114324843025791e-05
59.153637570228575,0.0012011629656517554,9.934595829630278e-05,0.0011018170073554526
62.559838240008204,0.0006991952836838111,9.68802828374785e-07,0.0006982264808554363
62.70849838750917,0.0006989108926167764,4.5949466701512376e-09,0.0006989062976701062
81.59502894110219,0.00035351966556376643,2.5469734645601283e-08,0.0003534941958291208
82.53482129118765,0.0003120059414977164,5.238223280429252e-07,0.00031148211916967345
90.21238202646093,0.0001471845378306942,8.063860123494105e-06,0.0001391206777072001
97.86072900857695,0.00021491043042029404,3.475184892919768e-08,0.00021487567857136485
98.11650272083284,0.00021047295581171858,3.4142074804365574e-10,0.00021047261439097054
104.07042784953504,0.000352557947169269,8.005941958309291e-05,0.00027249852758617606
135.38042645778833,0.0014124786074329087,3.828645652770295e-05,0.0013741921509052056
137.01343128505934,0.0008228628279137356,3.7399711961121475e-09,0.0008228590879425394
137.06393080758954,0.0009136585541048637,2.0982066703663075e-07,0.000913448733437827
142.77173073747386,0.00030881647298233484,9.712149015494784e-07,0.00030784525808078537
143.16541757514716,0.00029121651395763216,9.15679033931417e-07,0.00029030083492370077
149.5061947298349,0.0006990490265407994,0.0001546250743689833,0.000544423952171816
171.6988320439022,0.012740094255981417,0.012316024824444936,0.0004240694315364812
173.4319659420184,0.0026877389546787864,0.00022579216410660748,0.002461946790572179
174.6278745808798,0.004263363274432755,0.0024404433790277975,0.0018229198954049573
201.85007666684203,0.004335814334395564,0.003894198414217863,0.0004416159201777005
208.66913464942465,0.001689553133799255,6.899730239813376e-07,0.0016888631607752736
210.09810647787677,0.001442661840629976,1.5048195877446183e-05,0.00142761364475253
247.7890000679974,5.377279300369272e-05,9.879127215367953e-06,4.389366578832477e-05
247.88054957356192,7.829551252345066e-05,2.632145051559497e-06,7.566336747189117e-05
247.96075116215718,8.120218351139653e-05,1.8689643098106108e-06,7.933321920158593e-05
255.8612066041788,0.0021775670673107954,3.4629606984797477e-06,0.002174104106612316
256.7716050023164,0.006175254361700375,9.992506940917163e-07,0.006174255111006283
258.6343629038878,0.006342201507452063,2.8464877929624477e-05,0.006313736629522438
329.1679043801618,0.0031702093913161867,2.1404423808774163e-06,0.0031680689489353092
330.34286294463715,0.002991522129456493,6.552824349839161e-06,0.002984969305106654
343.97483491263023,0.013609699899777429,0.013527078222921544,8.26216768558857e-05
398.2641642100385,0.0014556164287571002,6.027080288265941e-08,0.0014555561579542176
398.6381410722388,0.0014096242703869836,4.560634716295438e-06,0.0014050636356706882
425.40157633238687,0.0025841995202933866,0.0023361527659936103,0.0002480467542997765
477.6434871842327,0.00038856238487220985,1.6645946403650978e-06,0.00038689779023184473
478.2494624551824,0.0003796688873703764,2.566232319674142e-09,0.0003796663211380567
490.014061339872,0.0016553038265247916,0.0016520518756719114,3.2519508528802802e-06
509.18881929685784,0.001681929471985734,2.5051442783856246e-08,0.00168190442054295
509.61200857763635,0.0015379809944722487,5.55217242340016e-07,0.0015374257772299087
545.6531502501707,0.004617700780736894,2.414413524295127e-07,0.004617459339384465
547.8287134680694,0.004872115816411268,4.977272056086701e-06,0.004867138544355182
586.8651508689258,0.004907526597340495,2.0319781905375255e-05,0.00488720681543512
742.4506715005616,0.0006281059935436502,2.7385813713709013e-05,0.0006007201798299412
742.476623536529,0.0005830451986966644,2.5519397856112687e-05,0.0005575258008405518
742.5526159004312,0.0005976705269640928,2.2571209761135193e-05,0.0005750993172029576
785.5250149621078,0.0617725856813352,0.056207663177511386,0.005564922503823813
813.7528275494392,0.0006522757414733942,3.079314248369185e-06,0.000649196427225025
813.8861011880435,0.0005529809248446089,1.4936122717556022e-08,0.0005529659887218913
815.5675353403926,0.0017563062274270542,0.0015919323761225377,0.00016437385130451638
822.2466491275401,0.001588066025784403,9.234498594907726e-06,0.0015788315271894953
822.531719003222,0.0015007133775513809,5.633317959436627e-07,0.0015001500457554372
828.6002894055005,0.010694334004438638,0.010491261961981972,0.00020307204245666627
898.7019843070105,0.004849166973255837,4.102700680432153e-06,0.0048450642725754054
899.070779701802,0.004866526127405695,3.7879545681843265e-11,0.004866526089526149
917.7772602975754,0.05703673201163078,0.056725115459157614,0.0003116165524731644
918.3164910956888,0.012020214562930715,0.00013437640704428848,0.011885838155886426
918.3700450420527,0.011865966165908253,3.3887746887161453e-06,0.011862577391219537
956.6639253068072,0.00017280958792812635,1.959663727552554e-08,0.00017278999129085083
956.6917097468757,0.00022283863384026377,1.3329713243423245e-07,0.00022270533670782955
956.7070155295713,0.0002674484444272586,4.706161818803017e-09,0.0002674437382654398
1028.0499937101256,0.003967189859331951,5.6774153223300586e-05,0.003910415706108651
1028.4290362758766,0.003930193242538333,8.962959202796812e-05,0.003840563650510365
1029.2565647629237,0.0033994947541888462,0.0031083739811436366,0.0002911207730452097
1059.6801790201632,0.011890942422924622,0.00025814174078174284,0.011632800682142879
1059.971839418878,0.013444852437106709,0.001580644333294528,0.01186420810381218
1060.8722726240396,0.026067261030143535,0.021107814389671138,0.004959446640472396
1072.091934312915,0.04992954916198071,9.203845473659793e-07,0.04992862877743334
1072.4106178167838,0.04965248332525625,1.3731211374730179e-06,0.049651110204118776
1085.910841823306,0.006573108437095515,0.002041844809141311,0.004531263627954204
1089.0385165247556,0.04439034580475784,1.7042529552109036e-07,0.04439017537946232
1089.1215771108632,0.04717945434999479,3.621627612237152e-06,0.04717583272238256
1102.6076985863929,0.021929179969311787,0.01566210640717708,0.006267073562134709
1112.8451442920311,0.007613623714933815,3.1633873793492454e-06,0.007610460327554466
1112.9515563161212,0.007404485731941721,2.0727861179629687e-06,0.007402412945823758
1127.3769393542161,0.010321750009113548,0.0026382545864979583,0.007683495422615589
1163.1585224778628,0.008466318312158808,0.0027663608801390357,0.005699957432019772
1163.3751923848604,0.007058488486519143,0.0011876640979310376,0.0058708243885881055
1163.7820245613093,0.04822897445325654,0.04319555931637699,0.005033415136879552
1165.2699936524302,0.05184061987206228,0.014830516162929767,0.03701010370913251
1165.4463590192618,0.040287552012107444,0.0031708382562553924,0.03711671375585205
1165.8171418365826,0.11924489618739995,0.1037217111866389,0.015523185000761039
1184.4981108671232,0.01835621848128529,5.536715743275019e-07,0.018355664809710962
1184.7765870695603,0.01922040634898007,1.163274020609314e-06,0.01921924307495946
1189.0153423991762,0.007164276499098784,0.0044483226322062485,0.0027159538668925353
1191.9716020774163,0.0018917320143950402,1.0119966554837475e-05,0.0018816120478402027
1192.0331828052597,0.0018308810704399645,8.249079635025046e-07,0.001830056162476462
1193.4225633953997,0.0005303372898211515,0.0003332353352827367,0.00019710195453841484
1251.560797685733,0.004830768421624122,0.0004426433060912032,0.004388125115532919
1252.7312432004635,0.0024586586090952858,4.8167273636833085e-06,0.0024538418817316027
1252.8377321421758,0.0023798603507356885,4.343512541762022e-06,0.0023755168381939264
1258.138215996184,0.002970102547149179,0.0006831827563373982,0.0022869197908117807
1261.901940755779,0.002795491202840086,1.9898499483689223e-05,0.002775592703356397
1262.2824398277166,0.002881040295288083,9.374257499137276e-06,0.0028716660377889457
1293.2719129995928,0.0007985847093503603,0.0005014609110921615,0.0002971237982581988
1293.5511101023283,0.0015927439504886311,1.5247504736148035e-05,0.0015774964457524832
1293.6213874407238,0.001654681591994934,1.1094643328719126e-05,0.0016435869486662149
1299.6407460000546,0.037957686236317734,0.01193775451323177,0.026019931723085962
1314.8898598928954,0.04087235059807485,6.889926658468626e-05,0.04080345133149016
1315.3232968920904,0.038715270252942593,5.776257050728969e-05,0.0386575076824353
1316.8568097995278,0.08813536807617595,0.007959000077936247,0.0801763679982397
1319.4461612199293,0.0014679101311080394,1.8513064885346157e-05,0.0014493970662226932
1319.5599130166797,0.0015803940717932555,0.00018443789986484377,0.0013959561719284117
1319.7951011202654,0.001259767253105858,0.0004001577394832422,0.0008596095136226159
1327.4909270767587,0.027197707602813027,2.9620255969805376e-07,0.027197411400253328
1327.5108281297703,0.027520379727017614,3.114054714638473e-07,0.02752006832154615
1327.5210847573603,0.031413389427473425,4.7625959261029376e-07,0.031412913167880814
1357.194373538698,0.0026226473018845825,8.920796411886798e-06,0.0026137265054726956
1357.451404710422,0.0027069447414947846,3.443509151846186e-07,0.0027066003905796
1361.5056355338509,0.004410569511315198,0.0012539038746160465,0.0031566656366991516
1390.5993400599127,0.006141738905710224,1.7532073723459502e-07,0.006141563584972989
1390.6285152385417,0.0066486715153051875,1.0711822591869e-08,0.006648660803482595
1390.9706420699324,0.0029214182979106027,0.0002106001257452769,0.0027108181721653257
1414.9550071031776,0.0008133387661320673,0.0003717447818748656,0.0004415939842572017
1414.981566746231,0.0009643718333757504,0.0005578430635524329,0.0004065287698233175
1415.0155297826873,0.001289276580998512,0.0009195758945793007,0.0003697006864192113
1425.9414021465848,0.002817203690769847,1.1628775376679178e-05,0.002805574915393168
1426.083207921548,0.002663903978651875,1.0432051561060937e-05,0.002653471927090814
1426.5599646082417,0.0003883847767315586,8.90816585360852e-05,0.00029930311819547343
1465.559453187686,0.0020185938756357713,2.974800621531535e-05,0.001988845869420456
1465.714448665763,0.0021359746653859383,0.0002967268332573782,0.00183924783212856
1466.626097398032,0.014089358628944625,0.01404539089791886,4.396773102576547e-05
1485.6153130054556,0.08418495692559487,0.0007259883267044299,0.08345896859889045
1485.6194326712139,0.05454577906166126,0.004696899776860422,0.04984887928480084
1485.6391340391476,0.05674899485453698,0.004665408028839766,0.05208358682569721
1491.8279078832538,0.0009588926433119039,2.2444630651669905e-05,0.000936448012660234
1491.8306833300217,0.001484213942513683,0.001078273757769449,0.0004059401847442341
1491.864952178812,0.0013140755581054985,0.0006676309411511877,0.0006464446169543107
1495.5195696233652,0.02685683674117808,6.401785779350044e-06,0.02685043495539873
1495.5407502843934,0.02693660906943696,4.241480944977918e-06,0.026932367588491983
1495.5486873202315,0.026852706633686493,5.438114847023927e-06,0.02684726851883947
1502.3383997447775,0.006603611079296042,4.089758762375753e-06,0.006599521320533666
1502.3622710950349,0.006859074121851843,7.370396547125841e-07,0.00685833708219713
1502.4125276912075,0.0034097955415409407,0.00020637732604146254,0.003203418215499478
1508.8834518360484,0.041037940535344514,6.98052051874565e-05,0.04096813533015706
1509.1639046708929,0.04066973161263601,2.218869933070707e-05,0.04064754291330531
1509.7021613019347,0.007339820715244462,0.005680510352572573,0.0016593103626718888
1512.5829456549297,0.02646694723435855,0.00021731994699415732,0.026249627287364394
1512.8797598883139,0.02777978651245235,0.00035290656670836556,0.027426879945743984
1513.1449220881464,0.008228340932205157,0.0034115284182076985,0.004816812513997459
1526.4012718738563,0.0293433139462138,1.815014841656229e-05,0.02932516379779724
1526.638989579924,0.022492767893123884,0.00011024168155649121,0.022382526211567392
1527.1599689278466,0.019402854643849096,0.00012010923811044935,0.019282745405738648
2989.4389743276324,0.06285089243695971,0.05213748744322896,0.010713404993730757
2989.473343729562,0.07323093559636945,0.0638137322860668,0.009417203310302658
2989.5255667047463,0.6732243073427769,0.6713675445104502,0.0018567628323266808
3008.7855139574135,1.0243784879148674,0.930847359264268,0.0935311286505995
3009.91193409617,1.1425676957640565,1.0435640220212927,0.09900367374276385
3010.0883181683794,0.3030918698498162,0.19527932317718358,0.10781254667263263
3022.8049674029153,0.22746943364190844,0.008608784601452223,0.2188606490404562
3022.810627097903,0.2500091742609543,0.003603656214841909,0.24640551804611238
3022.8708216091304,0.2438450004664394,0.004568806835934507,0.2392761936305049
3039.65341074871,0.9250265152074119,0.8569390914747196,0.0680874237326923
3039.708708124817,0.8812830020851076,0.8117319242324237,0.06955107785268391
3039.714499541788,0.9898087045001216,0.9247308057609187,0.06507789873920283
3052.6071809451455,0.5704172315710817,0.561937967224327,0.008479264346754696
3052.6380597635166,0.6125170889156467,0.6041813287321866,0.008335760183460158
3052.641343453012,0.5113874703860734,0.5024887475826905,0.008898722803382907
3059.741504329662,0.5307821365713725,0.5229692532197745,0.007812883351598006
3059.859183635777,0.5222555616935951,0.5147257022157958,0.007529859477799242
3059.9206075171896,0.5117702330932286,0.5039250982664246,0.007845134826803888
3065.6457755806186,0.2137463374383332,0.05572982696425515,0.15801651047407805
3066.3530817994333,0.20366534407606518,0.07360099128435518,0.13006435279171
3068.037829105271,0.1767067691188919,0.07312578288110548,0.10358098623778643
3069.143395143044,0.46048497443619063,2.573778677792464e-05,0.4604592366494127
3069.2101259495844,0.4838281382090099,9.331426569988265e-05,0.48373482394331
3069.2167452860836,0.45307795219382324,1.482945123867074e-05,0.4530631227425846
3088.4821691894313,0.5069835282039477,0.453542319075666,0.05344120912828171
3090.5572919759825,0.4590407398902733,0.405768643989734,0.053272095900539246
3091.1623302746707,0.5741748408322076,0.5226467554066776,0.051528085425529994
3103.3509034281,0.00326837248020191,1.68545697827438e-05,0.0032515179104191665
3103.423058922703,0.0032880973786082023,1.2490551360377435e-06,0.0032868483234721646
3103.5281009858545,0.0032650127548233916,2.6526971161547857e-06,0.0032623600577072367
3118.8631458125587,0.15362070856679028,3.964863061012439e-05,0.15358105993618015
3118.9431029948582,0.1535542810119309,3.1084101411144194e-05,0.15352319691051974
3118.9642059831144,0.15431166126963056,4.3645606114118215e-06,0.15430729670901913
3125.485969731697,0.38504995183131013,0.05073296974149892,0.3343169820898112
3125.513424372262,0.38498534897147163,0.05092869341457059,0.33405665555690106
3125.517752774405,0.384982971966689,0.050739260239791466,0.33424371172689754
3156.549130186105,0.26598097660797976,0.07070713119596687,0.19527384541201287
3156.866920008148,0.26216928072241835,0.0725184119462779,0.18965086877614046
3157.3822503000288,0.26737306383927023,0.08352009473882943,0.1838529691004408
