frequency_cm1,total_intensity,isotropic_intensity,anisotropic_intensity
0.9392844567107888,0.0,0.0,0.0
0.7939033372880305,0.0,0.0,0.0
4.303874601118499e-06,0.0,0.0,0.0
1.3581857499139369e-05,0.0,0.0,0.0
2.8338018093823527e-05,0.0,0.0,0.0
3.1005447528366616,0.0,0.0,0.0
14.628678491725228,0.002451148525505495,8.004339951108425e-06,0.0024431441855543865
20.7682365869539,0.0002757746248011659,1.2174313763094e-05,0.0002636003110380719
25.97887063279876,0.0004612144541767419,1.5590434551321218e-09,0.00046121289513328674
40.01774782186993,0.0059347296835118215,2.9047249216612608e-08,0.0059347006362626045
56.90673035905905,0.00027012078568911153,6.999759104442994e-10,0.00027012008571320107
58.29867300328486,0.006408298182805927,6.357246277435169e-07,0.0064076624581781835
61.942574592978644,0.009590243661920354,0.00035954376217159643,0.009230699899748757
133.6082651064444,0.003252166091571613,0.0027994041613463114,0.00045276193022530145
143.24195375910725,0.00010364513147276876,3.399034214932359e-07,0.00010330522805127552
184.2961021927108,0.00041259918616554,3.7004290109105445e-06,0.00040889875715462945
184.4132186217525,0.00020257674013875946,2.2421320107006275e-06,0.00020033460812805882
191.20293164231552,7.430093327454223e-05,9.143719976780301e-08,7.420949607477443e-05
200.87786813012218,0.0007544311288120744,9.511202944233206e-05,0.0006593190993697423
267.3397828559674,0.03099196126296293,0.008480650155042183,0.022511311107920748
319.0757309618885,0.0017200991717064536,6.341995040842757e-07,0.0017194649722023694
335.1689806264739,0.0003266941599453144,2.437100835046917e-07,0.00032645044986180974
350.9260131516653,3.460353467680914e-05,4.400724789268446e-08,3.455952742891646e-05
366.22762856252257,0.00043530044435085354,0.00019827154153728184,0.0002370289028135717
390.0411743982058,0.02448993757905946,0.01267055055430269,0.01181938702475677
419.1155877203816,0.00020043288516190304,3.891753444893601e-08,0.0002003939676274541
419.38416189784374,0.00023093303208727604,5.083295318360982e-05,0.00018010007890366622
461.77016381769744,0.0029140532519602983,1.193243957684005e-05,0.0029021208123834585
466.86849353795327,0.009385362316287657,0.004599661503823688,0.00478570081246397
509.0582451615167,0.004808577227442008,2.684246830265241e-05,0.004781734759139355
525.6350727264391,0.0005648023126354327,1.0742402603467979e-07,0.000564694888609398
578.4089320880413,0.0042846763690818,4.7164116097334876e-09,0.004284671652670191
595.2024985819128,0.004148418189652908,0.0023571407047915474,0.0017912774848613605
606.4947715396842,0.00080235458051762,4.036611315006115e-06,0.0007983179692026139
611.5848515969383,0.003217115005815356,0.0029695792721735124,0.0002475357336418437
650.399151517651,0.060087924623222426,3.2862602549890726e-08,0.06008789176061988
651.900985504886,0.004824891597800362,0.0011893763461316444,0.0036355152516687173
692.0707657162923,0.00847515000491658,4.2273303288357825e-07,0.008474727271883696
715.5386872069491,0.01991348699861241,0.01627890007507247,0.0036345869235399394
764.1207712366141,0.00026378379554355255,8.249915938386956e-06,0.00025553387960516557
769.1497461522712,0.05030853008269648,0.043575150006954874,0.006733380075741604
777.5847326744812,0.023692697255708592,0.0202336774798276,0.003459019775880993
839.4484302555821,0.0059681775245800355,0.0021940165776466064,0.0037741609469334287
839.7366584997644,0.2034962747209197,0.15696854586340295,0.04652772885751673
863.1891692069332,0.0022279362660487805,2.471672505559196e-07,0.0022276890987982245
873.2263731248829,0.014427691143689294,0.011630636815358161,0.0027970543283311338
879.1108875232559,0.0014793412347771163,4.2254603930357325e-08,0.0014792989801731859
902.8364449066527,0.10693423220324294,0.09325517552553904,0.013679056677703907
968.627154460458,0.0012490411841915724,3.16768554916063e-07,0.0012487244156366563
970.8418727981297,0.05915217967338273,0.042909723476014246,0.016242456197368485
993.1841974702322,0.011482882993723688,0.0032004985910375947,0.008282384402686093
995.1840131081257,0.00018305730700813878,1.984271282210218e-08,0.00018303746429531667
1011.6372941849181,0.007935347318932187,1.7799078997580908e-07,0.00793516932814221
1020.522729604818,0.004478216638455161,0.0015460051231039713,0.0029322115153511898
1021.244258656113,0.0003419812082581399,5.766725184507757e-06,0.00033621448307363214
1042.7500958857465,0.1247599726912544,0.04952793325605362,0.07523203943520078
1043.6015896586182,0.0003365157740020353,6.520808650099445e-06,0.0003299949653519358
1046.287194479679,0.0031191222404705916,0.002397122756310741,0.0007219994841598509
1046.4436369444695,0.0004225260492891834,2.2763548055599596e-05,0.00039976250123358384
1047.7958142539765,0.10260477547028107,0.05212353412132746,0.05048124134895361
1103.1074871275384,0.2944939147350154,0.21276145193865362,0.0817324627963618
1103.2737357607832,0.01519994918200847,0.0004045330198255928,0.014795416162182877
1131.9781513682765,0.00043478164461551236,1.1947219800858859e-05,0.0004228344248146535
1141.955615510215,0.0006557265497525877,2.9039530524678002e-08,0.000655697510222063
1161.331346515693,0.006853665627999659,0.002546975832463079,0.00430668979553658
1207.8564487051883,0.006524925651568244,0.003702030946132816,0.002822894705435428
1207.9326167849094,0.09628317167551291,0.07106799178472242,0.02521517989079049
1239.3443810260135,0.0007042805061641207,4.263518180394054e-05,0.0006616453243601801
1244.1401836504313,0.24143224924874465,0.1894873205861926,0.05194492866255204
1289.2999557472494,0.0049227304489757335,3.0857045462457413e-06,0.004919644744429488
1292.485601278259,0.5602655777335619,0.3341565917432654,0.22610898599029644
1294.211545491153,0.017891681269291644,0.00014162562787881948,0.017750055641412826
1302.043828406457,0.0055623127514260705,9.538033699696455e-07,0.005561358948056101
1329.8302609347381,0.011247479101951719,0.004682363682721191,0.006565115419230527
1330.5374458396807,0.007206160984473759,5.919593723712626e-06,0.0072002413907500465
1345.8923203053641,0.003027662005826477,0.0019534097138296166,0.00107425229199686
1352.7380738702545,0.0026272860306354715,3.881714232152915e-06,0.0026234043164033187
1375.0627430380384,0.5363829676534229,0.21943980044605688,0.31694316720736593
1385.805877731003,0.0001793559251806556,6.158147570974334e-05,0.00011777444947091226
1385.940855844169,0.10252918909529377,0.047181687183951236,0.055347501911342536
1461.144007123607,0.03590858974194264,0.017827470504841774,0.018081119237100866
1462.0175628363188,0.0006642277072703677,3.379431609465467e-09,0.0006642243278387582
1470.4915041813279,0.01909966165233676,0.0010764542794418014,0.01802320737289496
1470.5320851611523,0.018959247473552533,0.0010709971503503363,0.017888250323202196
1475.2568133852064,0.02894612856491808,1.1799241535393474e-05,0.028934329323382687
1475.2859251527075,0.028753851713845015,8.006245778563891e-08,0.02875377165138723
1482.9022694150026,0.2085488447719922,0.04740272995880441,0.1611461148131878
1497.2012393065816,3.9481127428325016e-05,7.500347365326012e-07,3.873109269179241e-05
1561.7433381333462,0.022865567975942667,0.007354701769524994,0.015510866206417673
1561.8154830740589,0.006939902188844576,3.6370122451756665e-06,0.0069362651765994005
1649.9882236679703,0.012501645021511595,7.79111763822121e-05,0.012423733845129382
1650.0649118283093,0.042818000187343844,0.015947720044589078,0.026870280142754766
1688.3322152725902,0.018598845067615777,0.00014734591376166505,0.018451499153854113
1688.935799348053,2.5704365865113408,0.7179201113691669,1.852516475142174
1790.566399123193,0.545512536459588,0.34899886716800166,0.19651366929158628
1790.6274034621185,0.17822107673620644,0.0224611173256016,0.15575995941060483
3061.0950585708706,1.0951639305607623,1.0039395856098265,0.09122434495093586
3064.781739686534,0.6510462716266141,0.6387737944337916,0.012272477192822574
3064.916202809324,0.8259438232545329,0.8154336040742163,0.010510219180316548
3070.055566280769,0.002274831866841461,1.5498844048332478e-05,0.0022593330227931286
3098.485014357709,0.3102933184605592,6.0021983261936e-06,0.310287316262233
3120.6782918288336,0.003863914491546542,3.56598476138548e-06,0.003860348506785157
3129.1342009688315,0.17592537772991013,8.79503289150147e-05,0.17583742740099512
3129.229957865464,0.17590624518665884,4.644625600902397e-05,0.17585979893064982
3179.508849485308,0.4988412496359726,0.12300114238375263,0.37584010725221995
3179.660443044954,0.5094317490457453,0.12540631805524402,0.38402543099050124
3188.4424983505255,0.35186472615959963,0.0020812610432486343,0.349783465116351
3189.0267571635272,0.2618388522447563,0.20044443653543098,0.061394415709325294
3191.6637011952175,0.35455232291627503,0.25386333657320503,0.10068898634307002
3191.6790355707685,0.26227371148973855,0.04867575431306896,0.21359795717666957
3221.568212566354,0.1492369300489564,0.00097780578392718,0.14825912426502924
3221.591823389814,0.6045897482293686,0.46596926714893033,0.13862048108043828
3225.7594996275006,0.4940561505083081,0.3574371504858867,0.13661900002242142
3226.1554575184696,0.5487648455869509,0.40283553053097426,0.1459293150559767
