frequency_cm1,total_intensity,isotropic_intensity,anisotropic_intensity
1.3993384579999564,0.0,0.0,0.0
1.6559763508810112e-05,0.0,0.0,0.0
1.652450695599274e-05,0.0,0.0,0.0
2.3694431491159555e-05,0.0,0.0,0.0
1.2606105001113856,0.0,0.0,0.0
1.8490504953522113,0.0,0.0,0.0
15.443789350898168,0.01873052696009925,7.730391046346958e-05,0.01865322304963578
29.84535016644097,0.012678541351014469,0.00030889362813650274,0.012369647722877967
41.173057199955366,0.0008137132149280469,0.00016534913530881303,0.0006483640796192339
66.0466062615384,0.003322428327552904,7.177906336771991e-06,0.0033152504212161323
70.60963927247953,0.00019740884775192095,2.0797860705927982e-05,0.00017661098704599299
107.58015681607228,0.005550814245463185,0.00016712710132573962,0.005383687144137445
119.57352956233846,0.00032835412510954446,0.0001808584187182257,0.00014749570639131874
140.6771999037995,0.001160189012689916,0.00029105232379212113,0.0008691366888977949
158.51936954421546,0.0020680129160828026,4.682617245328459e-05,0.002021186743629518
203.20784962954266,0.008015497253711217,0.00038322865227681394,0.007632268601434403
229.50387119121316,0.015051931688846049,0.009590226537030575,0.005461705151815474
238.92485294267823,0.006875549527182574,0.0026473823795608604,0.004228167147621714
251.48615198423923,0.0011471731325233341,3.461890970044742e-05,0.0011125542228228866
257.81505389216215,0.001413805975699092,0.0005232879184821076,0.0008905180572169845
268.5831380553379,0.0059883168671527156,0.0014480119467030943,0.004540304920449621
288.50819539877216,0.007266677658755098,0.005527972194593112,0.0017387054641619854
303.50970611940676,0.017951741591693656,0.01578184886032851,0.0021698927313651465
338.33144125434154,0.001840180521419227,6.541276179101635e-06,0.0018336392452401255
343.8487598598531,0.013734047476859626,0.0037636163940880183,0.009970431082771607
376.5215430682448,0.00221630845029204,0.000647056772055785,0.001569251678236255
408.9906141293062,0.009525138711186935,0.008369998991247836,0.0011551397199390996
428.0151351493794,0.002227764560568105,0.0011680102149025375,0.0010597543456655678
438.391946429073,0.005926020633760167,0.0018217870195154971,0.00410423361424467
469.4190367159914,0.0027399856477879877,0.0003529142955322424,0.002387071352255745
513.6508518647856,0.004078899295513713,0.0009200183626261893,0.0031588809328875235
525.2175126639411,0.010236254693370141,0.004488984479963286,0.005747270213406855
562.3272845997933,0.019430985825050574,0.012115856138998715,0.007315129686051859
579.7292237914153,0.006001434769286053,0.0014170186467103948,0.004584416122575658
593.6569910141054,0.01897299371514395,0.004976022921494066,0.013996970793649885
616.3220224777162,0.018252222808200616,0.007448784999896192,0.010803437808304426
659.329047896146,0.00437982718637955,0.0017610700359681495,0.0026187571504114006
679.8910770730475,0.02874492614412869,0.025334491786899185,0.0034104343572295037
738.6619951276317,0.0010530585817079326,0.00011148088507141195,0.0009415776966365207
766.6581829374478,0.0036740008073521367,0.0010449708289669236,0.002629029978385213
788.6843207295,0.15305249998645493,0.13746577333276702,0.015586726653687898
795.7542091065402,0.005534361060054227,4.78947002410086e-05,0.005486466359813218
832.685815227042,0.0033327748190818823,0.0009936181525077973,0.002339156666574085
848.6429699919477,0.04900683727207793,0.04253677821341017,0.006470059058667755
921.1026692582983,0.02504571303611026,0.016483734196043282,0.008561978840066979
925.640577505678,0.0025545752817793367,0.0005940909926384727,0.001960484289140864
948.2265026307181,0.005707064609490713,0.00047733278556481975,0.005229731823925893
958.5569697428054,0.003800822717064553,0.0001548756314134699,0.003645947085651083
964.5099497316129,0.0007531465933026414,2.474679729612594e-05,0.0007283997960065155
1023.7396228746892,0.007763438539763805,0.004883865152944068,0.0028795733868197367
1077.1851949061231,0.030010451449594487,0.019248558135025698,0.01076189331456879
1080.4604583732028,0.02986078824822308,0.00164509116432415,0.02821569708389893
1107.5268834500814,0.014779842868905341,0.008381510575309831,0.0063983322935955095
1120.2342733828111,0.015507880184488234,2.7043478964065412e-05,0.015480836705524168
1132.3492989312313,0.01101083859509622,0.002200866383527472,0.00880997221156875
1141.0296462920867,0.052805411956879586,0.04560396906251256,0.007201442894367026
1174.2927718774142,0.002993819662611756,0.0002258840863923546,0.002767935576219401
1178.8573272910287,0.03105200230504329,0.023892174388118553,0.00715982791692474
1181.0427412453266,0.002528904437690723,0.0008570559759645208,0.001671848461726202
1193.5783729718526,0.15739391269323166,0.1388940741484032,0.018499838544828465
1213.1851905379494,0.013310303635348197,0.0015622565320062892,0.011748047103341907
1259.3187039605907,0.005050902413932688,0.0031520834499055143,0.0018988189640271732
1271.7339378946347,0.004406313444113343,0.0003421589101117977,0.004064154534001545
1288.388248923853,0.0059607152490093835,0.00045441388208340483,0.005506301366925979
1314.5162304975188,0.07028278809763612,0.050895222190755866,0.019387565906880254
1320.0741433050691,0.038929131660197264,0.026580405270498736,0.01234872638969853
1329.0038897283375,0.007369298751878254,0.0011193326128482255,0.006249966139030028
1340.3714516428722,0.02590977674610792,0.0011254236312832962,0.024784353114824624
1359.744545234756,0.011905882832956086,0.0004884971088684523,0.011417385724087634
1367.1375856038214,0.07037663643118575,0.05179308582105077,0.018583550610134968
1393.7554648062826,0.018527757080990123,0.00021203652370422406,0.0183157205572859
1413.0842187516896,0.006864872730241078,0.00018566967403992271,0.006679203056201155
1414.7496623575557,0.0010611406413279182,1.3437328925857e-06,0.0010597969084353326
1447.5750468865826,0.017137515305224064,0.008340179733272562,0.008797335571951502
1479.3501527924875,0.02107859428576881,0.013907889422898376,0.007170704862870436
1481.0213081033278,0.06114801697693127,0.0026519924701442457,0.05849602450678702
1484.6260547407944,0.0110518470623573,0.0025218717677750924,0.008529975294582208
1487.3489917343616,0.0016785351342993977,0.0008971334167621475,0.00078140171753725
1494.2155877407831,0.04002570498050766,5.337418381427321e-05,0.03997233079669339
1494.940835216628,0.021143447823128363,4.596461246190612e-05,0.021097483210666457
1496.7461583691768,0.0392591782375883,0.004431315768902187,0.03482786246868612
1504.9821819968872,0.00608649551240845,0.0026399983129630268,0.0034464971994454235
1507.6103513500377,0.029781995149694575,0.00878067476706921,0.021001320382625366
1562.2203818587557,0.023384372572932716,0.018455185001438,0.004929187571494714
1633.1620584229722,0.046790683365464665,0.01540236178597864,0.031388321579486025
1667.8037029058526,0.17404301581919152,0.005041016080984647,0.16900199973820687
1674.6292979698828,0.17908232769611288,0.01986932904279381,0.15921299865331906
3039.4777805384037,0.7330926606705803,0.6390611356087125,0.09403152506186789
3043.694521271171,0.7808158229110631,0.7468227344178751,0.03399308849318803
3051.3533797535206,0.4655165685819437,0.4469582436483401,0.01855832493360359
3056.984663275187,1.1657966061561968,1.0575766857508007,0.10821992040539613
3065.713344456536,0.2174532127720784,0.1363801227536101,0.08107309001846828
3071.049495194215,0.4124212990796644,0.0025585826696585996,0.4098627164100058
3096.8372802156823,0.2134377675342399,0.10108665848517571,0.11235110904906419
3108.101885462051,0.2181458466121128,0.0004360776678601107,0.2177097689442527
3115.253075401723,0.24417755297826133,0.021592170142217933,0.2225853828360434
3122.070548984461,0.08773732282754838,0.010487227565024975,0.07725009526252341
3124.754640615508,0.37399092714907933,0.08428439487715922,0.2897065322719201
3167.243275322321,0.6228328957085426,0.18521063068999236,0.4376222650185503
3217.4365673931557,0.23087259462298115,0.1516439277946163,0.07922866682836485
3224.6710773429945,0.11966415739694139,0.005286450385616536,0.11437770701132485
3240.7277409534695,0.6490353430975331,0.45571985824850225,0.19331548484903088
3602.1461590690087,0.9373069070564448,0.7323571729871801,0.2049497340692647
3605.726964746278,0.7437792182734551,0.4855140384825088,0.2582651797909463
3706.2353601631826,0.21423563504512544,0.008430505044100258,0.20580513000102518
