frequency_cm1,total_intensity,isotropic_intensity,anisotropic_intensity
2.2976484878071584,0.0,0.0,0.0
0.9674858062875493,0.0,0.0,0.0
3.0057304123392025e-05,0.0,0.0,0.0
1.993793226622987e-05,0.0,0.0,0.0
2.4399156285546866e-05,0.0,0.0,0.0
0.8809408776679823,0.0,0.0,0.0
16.899057210285143,0.006236244974447617,5.090206117891621e-05,0.006185342913268701
36.16426302904893,0.0028795806639214014,0.00020205620655864502,0.0026775244573627563
50.67107418614014,0.007674201443446347,3.0103449237089843e-05,0.007644097994209257
67.47914171178937,0.007437171114575427,8.277694808884115e-07,0.007436343345094539
69.69209213743953,0.004363386309996069,4.528280390563432e-05,0.0043181035060904345
129.07275273717204,0.004445860598038368,0.0007108437377735026,0.0037350168602648653
200.42841766743126,0.004015117203293329,1.4058720956202937e-05,0.004001058482337126
220.49769921445693,0.0036238818875291173,0.00024386461596931686,0.0033800172715598006
232.17526808644539,0.0013887894974418634,0.0007269430882209666,0.0006618464092208966
244.79895890075494,0.014685239616297894,0.007233362134214869,0.007451877482083025
253.97405830788531,0.013599528768323859,0.004054383946489412,0.009545144821834446
271.6932218944728,0.0010319595699055835,0.000592781393008124,0.00043917817689745944
305.41608442585374,0.0004227811477533142,0.00035747173854589305,6.530940920742114e-05
332.96350747310055,0.003973855831052253,0.00013659157233891891,0.0038372642587133346
334.7207991575224,0.0001220710984358743,2.4704482422111666e-06,0.00011960065019366313
339.3988416120186,0.012757031940511194,0.003297703950833498,0.009459327989677696
355.14865032682684,0.004346775348191473,0.0021706108509308574,0.0021761644972606155
372.58774363497054,0.0003027112869294712,0.00011890535769968002,0.00018380592922979122
383.5318132143232,0.0034745548445955492,1.9821980191585205e-05,0.003454732864403964
423.1711684175405,0.00027455938863667206,0.00020845417654023014,6.610521209644192e-05
446.1228656780618,0.013806976213519548,0.007234152395715255,0.006572823817804292
468.97469029131224,0.0024599799660759147,0.00011930917292757068,0.002340670793148344
530.204365596596,0.019246551781587327,0.015000852989286252,0.0042456987923010754
550.5496226065154,0.003456369806890282,0.0017456565605691392,0.0017107132463211425
590.981342336928,0.005423669405967006,0.004015638816990595,0.0014080305889764113
657.8932666666235,0.019499400248900955,4.2548587456601315e-05,0.019456851661444355
692.47694275257,0.03874115171252952,0.03767787629434006,0.0010632754181894631
771.5740612241672,0.019670372052735318,0.016338171351919128,0.003332200700816191
829.81916323888,0.1181680428887011,0.11521793363309718,0.0029501092556039237
846.7044425050636,0.003616205484419122,0.0013836986428770292,0.0022325068415420925
868.0309403075569,0.006304007391516259,0.0005228675280107395,0.005781139863505519
870.4796552951245,0.014741422023749453,0.0005607654024426482,0.014180656621306804
879.864350214362,0.02005014432098092,0.015573613911863574,0.004476530409117346
910.5112103057533,0.00481758646028088,7.665660549302908e-05,0.00474092985478785
945.9534719744313,0.02752315149333242,0.0006530981917196634,0.026870053301612757
947.9840541110544,0.02383321785701816,0.00700730957499709,0.01682590828202107
954.701621644103,0.016006011530451173,0.0004150345838527812,0.015590976946598391
961.6613877524385,7.283643680130654e-05,9.357378047185872e-06,6.347905875412068e-05
981.9701943651605,0.03146704117372713,0.013025708422976094,0.018441332750751036
992.3538298246664,0.01008838216402435,0.004159853042989321,0.005928529121035028
1009.1360831483569,0.00016622730851601367,7.606450301659677e-05,9.01628054994169e-05
1042.5856009368733,0.0047706587215078766,1.0981454529826622e-06,0.004769560576054894
1047.5960270041069,0.004772252569966108,0.0034274491218644156,0.001344803448101693
1051.3151134343157,0.00706758484070259,4.953154127670898e-05,0.0070180532994258814
1092.936927125889,0.013060613541498914,0.007475734806500974,0.005584878734997939
1109.9571536599672,0.05438196816210371,0.02423016666611778,0.030151801495985925
1142.349791079418,0.09575531054731976,0.08034718632520838,0.015408124222111387
1151.5174146085028,0.013930819381635016,0.007811582687991747,0.00611923669364327
1163.3286836121374,0.011620989693364107,0.001866886631445594,0.009754103061918514
1212.8070458855655,0.04315017343853901,0.021356285356168098,0.021793888082370913
1219.7152710627954,0.02326516368391401,0.014456559828386256,0.008808603855527754
1239.747970288932,0.033496736330453226,0.017010694763028925,0.016486041567424302
1243.7300187518592,0.042374760236139015,5.648843117045973e-06,0.04236911139302197
1248.0961849179012,0.058370422572522965,0.04029340430858596,0.018077018263937004
1303.3200253230177,0.04225969383273183,0.018588342646542175,0.023671351186189658
1310.7922238402437,0.017041630941297015,0.015044035763854904,0.001997595177442111
1321.7277211459689,0.03755680240562421,0.03309870865606721,0.004458093749556999
1334.3460562755263,0.016123398883883158,0.00021292079736751112,0.015910478086515648
1352.3800879988191,0.008710136757745299,0.002946547020093577,0.005763589737651722
1372.3025031817076,0.06270339393753609,0.024653970362015748,0.03804942357552034
1395.978900793484,0.0004203303336130782,6.990093881935005e-07,0.0004196313242248847
1399.4915184524468,0.002231235754685585,0.00011814320510732694,0.0021130925495782583
1405.7871013413182,0.009810455006007447,0.004628675259708419,0.005181779746299028
1420.5977423252564,0.021182168825133695,0.001730750703457493,0.019451418121676202
1426.5490693033942,0.0017905136354479762,4.563325032768018e-06,0.0017859503104152082
1459.5873500669347,0.0025565515500774916,0.00010158421520181571,0.002454967334875676
1476.178472579348,0.009131687382330929,4.2388391581896735e-06,0.00912744854317274
1479.8714287729385,0.024820488420370254,3.4376930918662595e-05,0.02478611148945159
1480.5693310205043,0.007234316731840041,0.0003338672043990086,0.006900449527441032
1486.6613365674373,0.022192597629271612,0.00036795601242936316,0.02182464161684225
1490.9973636746136,0.029681611676081212,6.874386485254489e-05,0.02961286781122867
1493.6356304852948,0.03295398602909941,0.0009818432529751563,0.03197214277612425
1497.8960917215124,0.02933431076654031,0.00021825276796770288,0.029116057998572607
1501.8220522258448,0.023887657826253406,4.741202875101099e-05,0.023840245797502393
1515.407903820556,0.02317814588151088,0.0180426273500518,0.005135518531459081
1569.9985936495511,0.003533858621956272,0.001974131276652646,0.001559727345303626
1650.6158519517132,0.009841868000736104,9.39403793562732e-05,0.009747927621379831
1697.7792703572486,0.2733982093471819,0.06714694453317534,0.20625126481400657
1840.428427148714,0.0658654598177581,0.0285258282701239,0.0373396315476342
2872.730184506242,0.38178841335929836,0.19818119382633184,0.18360721953296655
3046.5693920775407,0.15614802491978,0.10329775891708953,0.05285026600269046
3051.248048986235,1.2017126101108195,1.1655491501857063,0.03616345992511333
3054.5313212665683,0.044206627478033805,0.02637582833813035,0.017830799139903455
3054.785296605645,0.024381607041429016,0.00041768007611895014,0.023963926965310064
3059.984728911829,2.491927512581907,2.3772190173017775,0.11470849528012945
3086.5656471253383,0.3008802945659017,0.002942158950761575,0.29793813561514015
3099.6993316358603,0.06358811654345387,0.04322986957938871,0.02035824696406516
3119.627738402437,0.04429639905393157,0.0005791524013818536,0.04371724665254972
3119.912471600089,0.035924089755411434,0.00021591299694748292,0.03570817675846395
3120.255207315927,0.33749067467799015,0.1286966860451463,0.20879398863284385
3125.8881106354816,0.9380041714160621,0.01967466455432873,0.9183295068617333
3127.1841457138844,0.09812955608410862,0.00016210211422236904,0.09796745396988625
3132.5817262279143,0.16229001929380163,8.723710286644518e-06,0.16228129558351498
3134.9169722912784,0.2444439168311325,6.171563285331477e-05,0.2443822011982792
3140.000205674005,0.37964559164576783,0.041993373890445274,0.33765221775532256
3181.780314684608,0.24697666862677198,0.08869215780117763,0.15828451082559436
3183.9721794823313,0.3118780845182915,0.11272532447974411,0.1991527600385474
3207.008800369882,0.5078171046187822,0.36219046511149333,0.14562663950728885
3230.719131885191,0.41755321269246637,0.2808748373941942,0.13667837529827215
