frequency_cm1,total_intensity,isotropic_intensity,anisotropic_intensity
0.30699852480577766,0.0,0.0,0.0
1.2366389061395295e-05,0.0,0.0,0.0
1.1414307173190334e-05,0.0,0.0,0.0
4.140564937004681e-05,0.0,0.0,0.0
0.15657810515475573,0.0,0.0,0.0
1.459605962391677,0.0,0.0,0.0
56.3001971993468,4.532103243093526e-05,9.647751158322852e-06,3.567328127261241e-05
63.82003285811047,3.990504180351811e-05,7.307432102218224e-06,3.2597609701299884e-05
182.8241739817752,0.0003801177217797159,1.6619426093467406e-05,0.00036349829568624846
205.1364352257098,0.001306619060518463,0.0002881189601947047,0.0010185001003237583
215.57120240218188,0.001948889506743487,0.0011466843014230005,0.0008022052053204866
237.29648266941555,0.00022784027790237336,4.027378204566488e-05,0.00018756649585670846
249.05054656520355,0.0031283004896131166,0.0017505373668935354,0.0013777631227195812
251.19423811541438,0.0003438780759954043,4.411331444966215e-05,0.00029976476154574216
266.9567402465438,0.006920494310273289,0.005711020918857219,0.0012094733914160694
268.60972920487956,0.001402078521365412,0.000735824041139872,0.0006662544802255399
293.6964082144262,0.0015565275093015426,0.0010807926121324605,0.000475734897169082
299.74337490367554,0.0006495139271208531,3.726681614305101e-05,0.000612247110977802
334.0715940488961,0.002640551203942082,8.289504385233009e-08,0.00264046830889823
354.4612916165683,0.00456514282946782,0.00029628651700418137,0.004268856312463639
391.4235742742602,0.0018603676778784712,0.0003409371902355138,0.0015194304876429573
398.1371325298915,0.0029869034178357833,0.0023059448896176737,0.0006809585282181097
426.36257392186775,0.0002899205121165792,0.00012878951653630958,0.00016113099558026962
444.2964144171272,0.0005954423011418138,0.00027956426822263984,0.0003158780329191739
472.1229567109179,0.003307883146340013,3.272716914741095e-05,0.003275155977192602
482.97333363141956,0.002998181378529183,5.01024998901277e-05,0.0029480788786390554
495.02301482450474,0.010899111887321462,1.0504275296926165e-05,0.010888607612024537
532.0424096726432,0.02315090817648036,0.018092647885450133,0.005058260291030227
605.166307312508,0.013647514824334028,0.012480475467938993,0.0011670393563950345
739.2705101374572,0.0964621751427654,0.09348324043291462,0.0029789347098507736
788.5823787250993,0.009796396049284282,0.003175404961492677,0.006620991087791605
793.8610666767304,0.020042465120473724,0.01876328445984814,0.0012791806606255824
840.6433544757718,0.011623512479935339,0.00036432235263266464,0.011259190127302674
859.7935335571575,0.001737929962134566,0.0009443553609012705,0.0007935746012332955
874.5872430675075,0.004512976717734011,0.0018042656494641456,0.002708711068269866
919.7670499352544,0.00528378115439325,1.278011123509708e-06,0.005282503143269741
938.8496087673335,0.012997633189259741,0.000992977418971174,0.012004655770288567
944.6119690679772,0.011887067603348256,0.00269164231802424,0.009195425285324016
947.5568551370026,0.0013259111450351097,0.0006285622025607798,0.0006973489424743299
949.1220793398662,0.011718603850094073,0.001339342852390433,0.01037926099770364
974.0392533309468,0.013998967912539352,1.5213383944448956e-05,0.013983754528594903
1005.9706678226613,0.005919730068433022,0.0012577879034867524,0.00466194216494627
1013.5877154220213,0.005683766363656366,0.0001877355422216095,0.005496030821434757
1037.9280226836358,0.0038371978614124814,0.0014019542837741864,0.002435243577638295
1049.2544941337303,0.012049520217274273,0.007263554327843661,0.004785965889430612
1059.8890526518248,0.004282754296832959,0.0005973326445564396,0.0036854216522765196
1070.4464418222128,0.0700478912291157,0.005797706513110126,0.06425018471600558
1094.6244478488152,0.00868342578149425,0.00011121032844967988,0.00857221545304457
1116.439323678976,0.0040484498588407684,9.86431176722326e-05,0.0039498067411685355
1161.842075865311,0.012864900052098963,0.00020355555249705634,0.012661344499601906
1168.0978258717867,0.02216429823197578,0.0014122697819067551,0.020752028450069026
1199.0766548383688,0.009832236954755626,0.00172174415406985,0.008110492800685777
1228.630685440648,0.04457495147131505,0.010640991076528473,0.03393396039478658
1253.7069980082226,0.01344952692702994,0.00010740992609173992,0.0133421170009382
1262.295231259136,0.047772623407027114,0.0023570994630832042,0.04541552394394391
1294.8754649516725,0.007308158380788311,2.3781302388977625e-05,0.007284377078399334
1301.8630877892112,0.02612074408718156,0.00028331531746412163,0.025837428769717438
1323.3442028156555,0.00985898743941601,3.398715247153888e-05,0.009825000286944472
1335.4216971137118,0.01509878311496484,7.867489358494031e-05,0.015020108221379901
1336.9679921812988,0.01187935565942918,0.00015336994697819626,0.011725985712450985
1359.5684751297545,0.012115638569811685,0.00021718905479661127,0.011898449515015074
1372.2988274728,0.013441705359423009,1.8629317465954636e-09,0.013441703496491262
1383.9921149455213,0.019260356622441275,7.40539183573781e-05,0.019186302704083898
1398.094197595271,0.002065552266730183,3.460752352127357e-05,0.0020309447432089096
1405.1381134113117,0.007949040312070731,0.0010552407457226558,0.006893799566348075
1411.4525634902532,0.005104131673563207,0.0012067052668355935,0.003897426406727614
1413.3125353584985,0.009758227879579494,0.0029601188425833766,0.006798109036996116
1420.191076159074,0.01719876093322867,0.0014568568435940248,0.015741904089634644
1471.5724601066236,0.01508650373768692,0.00014733144288758392,0.014939172294799335
1475.825009347142,0.0029877905306244248,7.793287969731822e-05,0.0029098576509271066
1482.6617249994026,0.0166442563044371,0.0003129696992737991,0.016331286605163302
1486.5699337569106,0.04584753554722014,0.0003205438899042552,0.045526991657315885
1488.6564879383602,0.005146915995465972,0.00129147252435314,0.0038554434711128324
1490.312342418374,0.014845442630599103,4.0094400640219486e-05,0.014805348229958883
1493.3014152292244,0.051817688750225924,0.0007112269286849106,0.051106461821541015
1497.7349357787548,0.01767282416312046,4.17113765921883e-05,0.01763111278652827
1510.265576075528,0.010108540838183003,0.0015764339887793207,0.008532106849403682
1515.1256105856255,0.002711661921187238,1.49665736294626e-05,0.0026966953475577753
1650.5418797518112,0.01356921145245672,0.0005950282453038698,0.01297418320715285
1657.8994924483159,0.0066448017896421265,0.00020659109582721487,0.0064382106938149115
3010.1271204251725,0.2418645405501468,0.12635231305887124,0.11551222749127557
3029.849771225439,0.3615696611705376,0.27045853926149777,0.09111112190903985
3044.355742661573,0.3539421094015926,0.2570445065724826,0.09689760282910997
3052.3640913300887,1.0586234914222135,1.0453545043300068,0.013268987092206721
3052.494631358856,0.16911215731982557,0.1677163618970452,0.0013957954227803836
3056.1765389974116,0.9808044622898893,0.9204139992774039,0.060390463012485414
3058.4922745101135,0.541029316742302,0.4862569490662789,0.05477236767602307
3061.99055891928,0.3405513898185006,0.11708522489287916,0.2234661649256214
3077.0336347308976,0.4780095095717074,0.4098654400229902,0.06814406954871718
3100.2967660445192,0.5235222776659438,0.3456252529308445,0.17789702473509936
3103.2419989141895,0.2658400867620778,0.02793236233435247,0.23790772442772537
3111.2672032752625,0.1693241276901031,0.06746846888076721,0.10185565880933589
3113.1723851690035,0.23285506471207343,0.061633231911961024,0.1712218328001124
3116.540988138779,0.2615287879078826,0.033521150098058033,0.22800763780982455
3118.6742549047735,0.44531006895245534,0.010332108306890095,0.43497796064556526
3131.5256166435447,0.21758670343597897,0.032474300762799294,0.18511240267317966
3136.965774525955,0.2868188458670165,0.012501354358890954,0.27431749150812557
3151.2148516484567,0.21677826353002608,0.04089882765887428,0.1758794358711518
3530.441451131995,0.49333297118569164,0.3748321209414077,0.11850085024428389
3532.519699188262,0.5291637492474894,0.42183611594884424,0.10732763329864523
3599.671053428085,0.19716568734928885,0.00010245724923365891,0.1970632301000552
3602.384467936706,0.16164963578833857,0.0037508611449784506,0.15789877464336013
