frequency_cm1,total_intensity,isotropic_intensity,anisotropic_intensity
1.9303637069713682,0.0,0.0,0.0
2.2829161893213507e-05,0.0,0.0,0.0
1.594029641982645e-05,0.0,0.0,0.0
1.8399961545684798e-05,0.0,0.0,0.0
0.13738283845735233,0.0,0.0,0.0
1.480164151249772,0.0,0.0,0.0
29.760714210857348,0.01742529017825778,0.00023765015580174708,0.017187640022456034
35.0562225087906,0.024386707854867087,0.00011800572923795489,0.02426870212562913
48.883127733488884,0.02923050822548326,6.540080867577496e-05,0.029165107416807484
56.065679366921835,0.004633677651276907,0.0001309352658981085,0.004502742385378798
78.85606147368254,0.011565786515681685,0.00048600422200717523,0.01107978229367451
92.7113830530306,0.0023556479924595934,8.968942511211133e-05,0.002265958567347482
93.84691442819882,0.002186983741947193,1.7324267520407667e-05,0.002169659474426785
121.75702728032266,0.005958627940082194,2.305041149503425e-05,0.005935577528587159
153.59536245869657,0.008914476348130862,4.0741449214539605e-05,0.008873734898916323
177.46189188266843,0.002820362711994021,0.0009007080323085669,0.0019196546796854542
202.52781004721942,0.006766822708319778,0.0022432333662004184,0.00452358934211936
204.4135934820902,0.003713975956448415,8.185540460629631e-05,0.0036321205518421184
241.1827666222551,0.012850031961732974,0.01101394608590631,0.001836085875826664
255.04944431419142,0.0098403333480262,0.00850556497252977,0.0013347683754964287
277.59011235538964,0.006197300583005651,0.00015466663345204646,0.0060426339495536045
298.78444399852066,0.004186280223742719,0.002296734039805984,0.0018895461839367352
314.18674359267897,0.0026651955668850168,0.0012579947805738784,0.0014072007863111385
368.05035254697236,0.004019291600155841,1.4594074334749966e-05,0.004004697525821091
399.3460392306288,0.008859907964695157,0.00100090431065304,0.007859003654042117
415.6682091754192,0.00036144918256677275,0.0002433165021262846,0.00011813268044048816
447.8511664407265,0.004460198739804444,0.00015729030445222475,0.004302908435352219
453.85225031429866,0.029312421449697167,0.01061533433418875,0.018697087115508416
459.99858093290595,0.00795848152691697,2.3650880799033277e-06,0.007956116438837067
473.6340615270937,0.003073174492761279,0.0004568886940969679,0.002616285798664311
514.2622922416723,0.007136203693363958,7.045383639162394e-06,0.007129158309724795
534.2445413759889,0.0150087401667548,0.008324724006982503,0.006684016159772297
549.3905556488269,0.04757809313631245,0.03311408354856669,0.014464009587745765
552.7460120747606,0.0020872547959045478,0.0001666466745200028,0.001920608121384545
590.3870238913341,0.012192083781807772,0.002169129745044714,0.010022954036763058
631.2831603759087,0.010608874045276457,7.1394084458974e-08,0.010608802651191998
634.6515997092062,0.016995149229884866,8.365970685860171e-05,0.016911489523026263
670.4050334405616,0.017318641538435514,0.0005284050130289036,0.01679023652540661
685.9340275230927,0.021293383387653596,0.017836814373357938,0.003456569014295658
693.8162694472729,0.0711524257827735,0.06259124596096881,0.00856117982180469
697.5763652451813,0.023764938681098753,0.012847314967145437,0.010917623713953318
717.1893044421099,0.011322034839187426,0.004643723132360861,0.006678311706826566
721.2910848110024,0.0020064206479604376,0.0011757778743811571,0.0008306427735792803
773.9698781880375,0.006386989404891923,0.003246891733207182,0.0031400976716847405
776.0557974580305,0.00015169666180810587,2.0577431132231112e-06,0.00014963891869488276
784.797008211055,0.002562427018759161,0.00023015509201454427,0.0023322719267446167
787.4020430426235,0.038408297899283295,0.03028616223297044,0.008122135666312853
812.2305750941733,0.014262006422489471,0.0011882836617068309,0.013073722760782641
843.7569342395026,0.002810182663008371,3.924170779156373e-05,0.002770940955216807
869.800964079808,0.004314629568096562,0.00011639774884360138,0.004198231819252961
879.0472843561146,0.011661245614101723,0.0031525912250208073,0.008508654389080916
897.4483356636897,0.0010192924649879281,7.922175594759004e-05,0.0009400707090403382
919.2835622712884,0.010478937940609754,0.006626065636861465,0.003852872303748288
939.81871580869,0.02239768637028956,0.016206362008542922,0.006191324361746638
954.2686348323062,0.005320351759202225,0.0012926560540777,0.004027695705124524
988.6480931674524,0.029856884901549693,0.024531760381443526,0.005325124520106166
994.0438054126361,0.0010886998249307067,0.00013630871692370348,0.0009523911080070032
1008.5684517281601,0.00028767864280669067,6.316102492937517e-05,0.00022451761787731548
1025.110871304385,6.114453407406813e-05,4.6766664623898725e-06,5.646786761167826e-05
1026.2483985693088,0.104286662672526,0.08926862034165924,0.015018042330866763
1028.617765431702,0.021015790216823378,0.017331105948987725,0.003684684267835652
1039.2159209518043,0.00877377565951865,0.0018736995598598724,0.006900076099658778
1058.9323994628417,0.10988997485649153,0.08587506904474776,0.024014905811743776
1068.3269538927198,0.22012113313025833,0.19538366711171812,0.024737466018540204
1079.1046659667913,0.017158510563659767,0.009296692712069328,0.007861817851590439
1092.5295127435743,0.02240629869402686,0.01491343651550811,0.007492862178518749
1124.8378152047123,0.0029712767822735638,5.6614950475580305e-05,0.0029146618317979836
1141.411792200089,0.011508078513621643,0.0006854988133435729,0.01082257970027807
1169.2991533646666,0.026877590559160013,0.0032889436736258833,0.02358864688553413
1175.4701516591952,0.015280698688415776,8.885527710377186e-05,0.015191843411312005
1199.3117629316155,0.008679139552284405,0.0007485067876110593,0.007930632764673345
1211.6560454913997,0.03148425718389522,0.012550658366189328,0.018933598817705892
1216.3496635531988,0.027152753706100867,0.001164152783334911,0.025988600922765955
1222.8497942879608,0.05482807825324206,0.03915871265017404,0.015669365603068024
1237.9208490509586,0.3235234289409629,0.1777167480422731,0.1458066808986898
1256.4298840622253,0.030996765766377245,0.008310676648860652,0.022686089117516593
1294.379469020332,0.05562568997294545,0.013131712485809565,0.04249397748713589
1315.4397973424232,0.03980485978360191,0.005257601255079921,0.03454725852852199
1318.8688075714265,0.07453028799657144,0.05475246946981679,0.019777818526754653
1334.0711338309043,0.08085567663938895,0.05118619677111762,0.02966947986827132
1343.2771090592844,0.0741693144963042,0.05081301099917979,0.023356303497124416
1362.0901014084889,0.7695053920296744,0.481748301827145,0.2877570902025293
1365.9231221162108,0.021190750356664068,0.001419281430351403,0.019771468926312666
1379.5079063383296,0.05188114350476792,0.015651950297563492,0.03622919320720443
1390.975094099392,0.03313009917982927,0.013404410130806626,0.019725689049022648
1421.5666434547434,0.01667614615993302,0.00889082168142737,0.007785324478505651
1442.7254836701695,0.014076785518497826,0.0027117663830127895,0.011365019135485037
1460.0894665545375,0.041428615263739296,0.003994866454849111,0.03743374880889019
1469.2466225451828,0.020346676794694575,0.000439219302724436,0.019907457491970138
1486.2702676842716,0.030261232980431745,0.0039048906234353405,0.026356342356996406
1494.2589713355337,0.004846401068256702,0.0005379665517075623,0.004308434516549139
1502.148933466825,0.018187904821058,7.298722153730816e-06,0.01818060609890427
1548.054326728477,0.09477516944603989,0.05312440793766707,0.041650761508372824
1548.3525166426393,0.18860025251606274,0.04785921083911046,0.14074104167695228
1644.5774241617023,0.41126488118668064,0.15328954792525706,0.2579753332614236
1661.3794999132997,0.05832877381303957,0.0016018861725556257,0.05672688764048394
1684.6051918475466,0.14080482970011232,0.02978723047108933,0.11101759922902299
1688.9549126254717,0.5102849290547791,0.12006024002970732,0.3902246890250718
1701.7393981203181,0.5788948277735104,0.26016665480488405,0.31872817296862643
1782.609905187592,0.25850567214870557,0.09307360804105229,0.16543206410765326
1796.1306698857666,0.033426130246354366,0.00012968375168345356,0.033296446494670916
3055.761098904471,0.34722522408551076,0.24229440387942783,0.10493082020608294
3068.1149884585398,0.8713959101999073,0.8224221988199804,0.04897371137992695
3072.435234231889,0.7111637133191675,0.6509122556162927,0.06025145770287475
3095.1201595748207,0.17886305497805233,0.02001508179939679,0.15884797317865554
3129.8003586062787,0.2762497904641445,0.00027387994916556476,0.27597591051497894
3182.995470180723,0.26964602362499085,0.022002963529852187,0.24764306009513867
3192.5502861176096,0.10606824372241527,0.0006839079410931527,0.10538433578132211
3199.520359184764,0.5587241634708584,0.09383952362406811,0.4648846398467903
3205.8626123113977,0.30035925005298947,0.018852636281039604,0.28150661377194985
3209.2597255468427,0.29979442964259545,0.017933906943130084,0.2818605226994654
3219.42021947125,0.712674808947718,0.22886634950763568,0.48380845944008233
3220.62763506204,0.8473770476677528,0.6210140255845068,0.226363022083246
3232.935918075812,0.6986087708831074,0.5827517194721753,0.11585705141093205
3233.2089798318098,0.7207546107469904,0.4985941513361185,0.22216045941087198
3238.8136219594157,0.7935767723151713,0.6214189926212956,0.1721577796938757
3559.629865168695,0.33124896622857564,0.19268029756552954,0.1385686686630461
