frequency_cm1,total_intensity,isotropic_intensity,anisotropic_intensity
0.3268338547001952,0.0,0.0,0.0
1.7085628746764746e-05,0.0,0.0,0.0
1.5782561223789242e-05,0.0,0.0,0.0
3.2519736724829964e-05,0.0,0.0,0.0
0.4337454285633447,0.0,0.0,0.0
1.2540173296164958,0.0,0.0,0.0
8.287535498871138,0.00376304943763115,4.417825729288478e-05,0.0037188711803382655
19.63792660576234,0.0004967887685280971,2.6210178082644286e-11,0.000496788742317919
28.73032529215866,0.0023148899663070397,7.609576055737836e-07,0.002314129008701466
32.425042692338316,0.0004058439728073792,9.043589928624006e-05,0.00031540807352113914
32.822854820286246,0.0008061140893243157,7.079549632148322e-07,0.0008054061343611009
46.37309697113879,0.0003569047077526555,2.3332275894957484e-08,0.00035688137547676055
48.82665524760016,0.0005851589693589746,0.00017700881341476446,0.00040815015594421016
65.49817003396443,0.0003214451958112433,3.587954037871426e-10,0.00032144483701583955
82.29005231112572,0.004649357863828413,0.0009554397768781203,0.0036939180869502925
90.05505865255557,0.0026908811471955552,0.0007662316546918994,0.001924649492503656
93.91683906314694,0.0013709025600798807,6.74780041521461e-08,0.0013708350820757285
113.601076713931,0.00389292242976893,1.064774331213997e-08,0.003892911782025618
116.9634974374567,0.0036203161648499407,0.0008867627353796475,0.002733553429470293
119.18170663854501,0.0006352767325888952,6.952331086350855e-09,0.0006352697802578088
132.63209349148732,0.003821253705435434,0.0030636817411452723,0.0007575719642901621
145.3818940352928,0.012487899945746216,0.009407712883327169,0.0030801870624190472
153.36642707693315,3.525806094344196e-05,2.520367879444617e-07,3.50060241554975e-05
159.2844183313881,0.00535501834705036,0.0038656287903221544,0.0014893895567282063
163.7134479566367,3.546362846911205e-05,9.680131005451682e-07,3.449561536856688e-05
169.1472924936133,0.003517751802582229,0.0021627436379997923,0.0013550081645824366
201.74151857753915,0.008398897883582234,1.842467147724259e-08,0.008398879458910756
207.1288081910733,0.0030673062702408793,0.002134769608944775,0.0009325366612961041
209.1009512032789,0.00039127104380980144,1.5279137479951545e-07,0.0003911182524350019
246.2096604064673,2.3303212790219148e-05,3.473832899457357e-08,2.3268474461224573e-05
246.3324425301368,2.3563633879919953e-05,4.4682701657106724e-08,2.3518951178262846e-05
309.42111600711047,0.0019035226804931169,0.000871560492416064,0.0010319621880770528
322.9994681055628,0.0015261869640340077,1.354134607225419e-09,0.0015261856098994005
350.0982955278296,0.002117421714439526,0.00010635461006800008,0.0020110671043715262
371.5121204305232,0.00047067850311815503,7.514818561577438e-10,0.00047067775163629885
454.3228557531165,0.002097072548546987,7.586836233762457e-05,0.0020212041862093626
455.5700085739147,0.0005664821444595295,1.1843102415735533e-08,0.0005664703013571138
482.32967485545737,0.007751328086520558,0.0063789363106114575,0.0013723917759091006
489.9596177670588,0.0006604520394138517,2.465385477144e-09,0.0006604495740283745
560.5583918333824,0.042599758910571085,0.024080145681888016,0.01851961322868307
729.5773173401901,0.00048385053864549325,1.8927176784876228e-05,0.000464923361860617
729.5919120490764,0.0003220418572152926,5.230240701780576e-06,0.000316811616513512
734.5070275681701,0.00027584935200675035,2.4602876080761185e-05,0.00025124647592598916
734.5154664798679,0.0002592897474570495,4.508861394535179e-05,0.0002142011335116977
752.5750698298906,0.0005943121258394983,3.056150641539632e-07,0.0005940065107753443
752.9698663003895,0.0009334147530107193,8.366094405866319e-05,0.0008497538089520561
781.7618387603374,0.0676345394925045,3.818306908008645e-05,0.06759635642342442
783.8643808077833,0.13967856437017248,0.10415446265231179,0.03552410171786069
796.0523141060187,9.954306665313896e-05,2.1976063951375367e-08,9.952109058918758e-05
797.1477197097965,0.0004627021783866882,0.0003338538328242929,0.0001288483455623953
863.1705938410366,2.4239941812333738e-05,1.8407992528959705e-10,2.4239757732408448e-05
864.8399710394349,0.00020393569731441384,8.750972414393263e-06,0.0001951847249000206
908.8942514648135,0.015941292513372535,0.008206640672620972,0.007734651840751563
908.9454507216044,0.029935261582045253,0.020129795625347734,0.00980546595669752
942.7873131801243,6.000028617872206e-05,2.553723237325227e-08,5.9974748946348805e-05
944.4523150544771,0.0014662952365632567,8.220299035791218e-06,0.0014580749375274653
1013.9130181499534,0.012646819242262823,0.00888095977683111,0.0037658594654317126
1014.4304639518344,0.0001234832141349407,8.909209446153216e-06,0.00011457400468878749
1019.8789139159892,0.00038866488739241524,1.3947935297157607e-07,0.0003885254080394437
1021.3773228120438,0.001041081891206916,0.00034477388686969263,0.0006963080043372233
1039.1036555830703,0.012386952378027765,0.00013082187697410698,0.012256130501053657
1039.3661855992686,0.022126681721601822,0.013714710051498097,0.008411971670103727
1064.3635162801754,0.03395621300947264,0.005545214604253382,0.028410998405219257
1064.399263758309,0.0336277387679835,0.011102437106505433,0.02252530166147807
1077.4752769867614,0.04676374525183199,0.026015030126360774,0.020748715125471214
1078.0910466393254,0.0026140965481743204,4.5432022665624235e-06,0.002609553345907758
1084.9228038944143,0.002902102319612775,3.620483861720401e-08,0.002902066114774158
1088.2785721962662,0.019647856576233035,0.012763346420734647,0.006884510155498389
1088.5363935891344,0.015362095009954169,5.273610080825223e-05,0.015309358909145917
1091.2573399368746,0.06702203927636957,0.008147068313157313,0.05887497096321226
1091.3095489368602,0.00887757794238625,9.395229949321089e-06,0.00886818271243693
1091.4536806413528,0.0354216945878181,0.001841927563820881,0.033579767023997224
1148.0341296597765,0.17017507421432126,0.14269441451581705,0.027480659698504214
1148.3235888184163,0.06586666769623577,7.5008135424474016e-06,0.06585916688269332
1209.853705653698,0.0010987073154588532,2.3239350918421336e-07,0.001098474921949669
1210.3398227030511,0.013387306738985348,0.0005420086975313319,0.012845298041454017
1224.8994082664813,0.05070712406657947,0.033091497780494215,0.01761562628608525
1225.0791194027297,0.005693913012150978,0.000200985646990563,0.005492927365160416
1246.0687564578227,0.0003109553977250208,3.81523695114776e-08,0.0003109172453555093
1247.8906722479817,0.003960830035978504,1.633532449147976e-08,0.003960813700654013
1262.1124188622198,0.0004079684706041459,1.511236551866989e-07,0.0004078173469489592
1263.4933075756728,0.010528130234601595,0.007603359927480209,0.002924770307121386
1286.2245154775712,0.0027140879879597305,3.7332167691772466e-08,0.0027140506557920387
1288.293796120894,0.011670353781652314,0.0001363072376582584,0.011534046543994056
1306.5879426928852,0.0008557668033254926,2.432350872724172e-07,0.0008555235682382202
1307.8749020295356,0.002076807433320764,0.0015260359997682769,0.0005507714335524873
1317.6596345627986,9.764549456045063e-05,5.865481739109166e-10,9.764490801227673e-05
1319.0177849035879,0.0018247983963585023,0.00019645010399970653,0.0016283482923587958
1328.6545064022932,0.04970499857017874,3.6386697443615926e-07,0.049704634703204305
1328.7891291665228,0.13906142552067857,0.00015085305081046087,0.1389105724698681
1336.1293928929176,0.00019980330765498533,3.170200381990078e-08,0.00019977160565116543
1336.5323880162505,0.0001588929564042932,2.5155427184618166e-05,0.000133737529219675
1337.4458559245577,6.469026438428472e-05,5.7823968273828855e-06,5.890786755690183e-05
1337.5565208009334,0.00019171608326112616,0.00013444004687730599,5.727603638382017e-05
1352.8149583771458,0.0006610566020481421,2.3250899702970666e-07,0.0006608240930511123
1353.843422468645,0.007965028322643604,0.006149446497845043,0.0018155818247985608
1390.3967462536757,0.005283236625072305,4.365748976038183e-06,0.0052788708760962665
1391.0205101967626,0.0074378110326051225,0.0032298811570494854,0.0042079298755556375
1411.3918426261835,0.00047883953814280826,2.6568313781794073e-06,0.0004761827067646288
1411.465560830581,0.0012444132558628374,0.00012172152720386579,0.0011226917286589716
1414.3147110912041,0.0001864405648813595,1.8156427788791533e-07,0.00018625900060347157
1414.3852370727307,0.00776860841059622,0.00442277689324999,0.0033458315173462293
1420.9414705329457,0.010235123993771349,0.0005427015881923077,0.009692422405579042
1420.9692760308262,0.004007944926217109,2.19372662789051e-05,0.0039860076599382045
1475.6035014974184,0.0552419475495329,0.0238337516782689,0.031408195871264
1479.1460456262776,0.009692333919716715,8.657128646873072e-07,0.009691468206852029
1481.3747984280749,0.010427643923495074,0.006621055777667078,0.003806588145827996
1481.425579781546,0.00328193510214658,0.0005523090471994701,0.00272962605494711
1482.4604813413557,0.04965999141247093,0.012061773913564746,0.03759821749890619
1482.7625034244477,0.06025407734816929,1.7980740532205293e-05,0.06023609660763708
1485.1636674837937,0.1365627387296363,0.0005935539425508417,0.13596918478708547
1485.243847887504,0.13082880893649076,0.024368776271818878,0.1064600326646719
1489.2208924267884,0.0020071053534984136,0.0004384261462086389,0.0015686792072897749
1489.2335562815485,0.0037195212968967736,0.00011980388597140383,0.00359971741092537
1493.9533805598944,0.02689561956728124,2.3438287294252628e-07,0.026895385184408295
1493.9684084160042,0.02692407332623649,2.991312755674792e-07,0.02692377419496092
1495.8834086400316,0.012461717034678447,6.766343153400469e-05,0.012394053603144441
1495.904349353103,0.010311068247550317,0.0009591627394156429,0.009351905508134674
1502.2661968351108,0.0001715167732202099,1.6158245188915612e-05,0.00015535852803129428
1502.3041544868347,0.00044448853283250093,0.00024197854590022488,0.00020250998693227602
1506.1741241162852,0.0016742564960515955,1.3055493193166817e-05,0.0016612010028584287
1506.1901328930712,0.0045454923227079115,0.00011526151469627385,0.004430230808011638
3024.087798810099,0.512644916060841,0.4858211963590978,0.026823719701743083
3024.1311231608965,0.5032027864752266,0.476286867433923,0.02691591904130359
3026.297101270607,0.5155819163221181,0.5083590336020374,0.00722288272008079
3026.410157185249,0.5571694324926768,0.5500713886254562,0.007098043867220534
3030.176738558922,0.05289579040437806,0.006398610481910014,0.046497179922468046
3030.209262555839,1.9584618906910418,1.9407272511781215,0.01773463951292039
3036.0275100575304,0.004395813727550013,0.002568871290254486,0.0018269424372955264
3036.0886350572955,0.02038945852857,0.014705959882669718,0.005683498645900283
3041.6856609263837,0.15019636127025993,0.11883567756622503,0.031360683704034914
3041.7049809777805,1.2933123806113462,1.2525377433057816,0.040774637305564715
3046.6746216104943,0.7679319706253478,0.009951683107262979,0.7579802875180848
3046.7552669160996,0.8457126586957776,0.011820055443146522,0.833892603252631
3047.219964567584,0.0806483894033248,0.020501604377963247,0.06014678502536156
3047.32460011882,0.3459636640037078,0.2873492738054096,0.058614390198298234
3050.214679750651,0.9498477479481184,0.94220531902418,0.007642428923938413
3050.3262998011614,0.9562813140163133,0.9486429947101478,0.00763831930616558
3053.7363233429546,0.03375943157171513,0.001029007034798943,0.03273042453691619
3053.8149577742174,0.03660594638795477,0.0015672907917085668,0.03503865559624621
3064.1578630108474,0.24189781946334415,0.0014333936535936842,0.24046442580975047
3064.2000945599207,0.2557201093872165,0.0016259090427187895,0.2540942003444977
3074.7174808026243,0.016406130823723455,0.015153669818538017,0.0012524610051854379
3074.777673685355,0.22908020341213337,0.2189764886818829,0.010103714730250457
3076.2540879708204,0.0009155677006433171,3.5903693115679073e-06,0.0009119773313317492
3076.4832966583413,0.456547649683488,0.43400116203830397,0.02254648764518402
3084.981065907918,0.08728973664336317,0.0014568484990342538,0.08583288814432892
3085.055208794551,0.1909907780482788,0.005060812259717176,0.1859299657885616
3093.678646438875,0.02523160563422943,0.00021260368213040545,0.025019001952099024
3093.806642979635,0.0349254544870431,0.0006296832567182649,0.03429577123032484
3113.2226428329855,0.12959209040036437,5.413541720679799e-06,0.1295866768586437
3113.3423537020476,0.1294748726703421,2.6566679062033457e-06,0.1294722160024359
3121.510204075826,0.4123014471107523,0.06402703033282804,0.34827441677792426
3121.7221409482786,0.41261314277671834,0.06432416405001656,0.3482889787267018
3132.260304992058,0.003361861913383587,2.7049711171033224e-06,0.0033591569422664834
3132.594407949877,0.16893287791460576,0.008527355352529343,0.1604055225620764
