frequency_cm1,total_intensity,isotropic_intensity,anisotropic_intensity
0.09437712482296436,0.0,0.0,0.0
4.0008859175040135e-05,0.0,0.0,0.0
3.494946356560699e-05,0.0,0.0,0.0
2.9595657668064295e-05,0.0,0.0,0.0
0.43184107420671075,0.0,0.0,0.0
6.438507851413345,0.006637934665372811,2.9273105695791906e-09,0.006637931738062242
11.420299064872122,0.0003384747718583687,6.838052115806116e-08,0.0003384063913372106
17.87811381792817,0.0001642180688365754,3.2413183143094114e-07,0.00016389393700514445
20.368441190317046,0.00019316110210510965,3.4881460187052434e-09,0.00019315761395909093
28.849191910315994,0.0017892931019125747,1.0075586265788278e-09,0.001789292094353948
41.179923018088566,3.4269102204737424e-05,8.711178292844518e-08,3.4181990421808975e-05
49.39530070033418,0.00029082552857274366,3.912401449850783e-06,0.00028691312712289286
50.777500523819874,0.00020582187976798597,1.2804391606069197e-07,0.00020569383585192528
64.86645023581387,1.9997211473201237e-05,4.6098504554859666e-10,1.9996750488155687e-05
80.6701523576997,0.0001925771575305402,4.890474768827571e-09,0.00019257226705577136
93.36195311132767,0.00036764431218105746,0.00013142599868237517,0.00023621831349868226
95.2560378498264,0.00046558527907802395,0.00014789622298204996,0.000317689056095974
116.09821885516047,4.3906421514541136e-05,5.783231695225121e-07,4.332809834501862e-05
126.77469424243131,6.280497155108153e-05,1.5485223043204008e-05,4.7319748507877525e-05
131.065494303217,0.018128756607856192,0.011413214700045414,0.006715541907810778
148.4246557645444,1.6510025515883846e-05,2.7136543814998604e-06,1.3796371134383986e-05
152.01391373613947,0.0002138032072642595,4.646131874025561e-05,0.00016734188852400388
155.42809495021606,6.353107795523257e-05,1.002721964365322e-06,6.252835599086725e-05
172.51743692444683,1.1913541616434242e-06,9.734780417953246e-11,1.1912568138392448e-06
174.43288297866212,8.739387266039909e-06,6.284463979611955e-08,8.67654262624379e-06
206.60253965371314,0.00014422616457373594,5.415390126231639e-07,0.00014368462556111277
215.4708681579889,0.00018655210973924114,0.00011661204536297554,6.99400643762656e-05
246.08287500385637,2.1171611731662763e-05,4.34850732332197e-09,2.116726322433944e-05
257.16055692894594,0.00043198463981919746,8.206475175642436e-05,0.0003499198880627731
272.39357185436467,0.0011355813599227462,0.0006611534269528882,0.000474427932969858
323.36452947877103,0.0019671589942082306,0.0008067699147709414,0.0011603890794372892
368.7618581796581,0.004993078197346265,0.003506156533025804,0.0014869216643204608
391.2398660151116,0.005069389822423283,0.0033661377071665093,0.0017032521152567732
450.1971497735491,0.0006797926667690423,0.0001917885539432534,0.0004880041128257889
464.16959386170606,0.00023507309493639585,2.3428618696377896e-05,0.00021164447624001794
467.64933010720324,0.00019877939195437028,7.386046894073081e-05,0.00012491892301363946
508.82801800494025,3.331173061470313e-05,3.58912749020237e-06,2.972260312450076e-05
518.0706598784019,0.0022707274649243223,0.0015064875798547776,0.0007642398850695447
655.8564971315415,0.008874014395419558,0.002778213301401644,0.006095801094017913
700.9183879710845,0.00011459203929192304,2.248033817428157e-05,9.211170111764148e-05
727.9828619297667,6.775835943042337e-05,8.58199466142971e-06,5.917636476899366e-05
728.7806364530458,5.798150130354094e-05,3.812344174959241e-06,5.41691571285817e-05
731.5357660787032,1.7601812789978588e-05,6.959058697866079e-07,1.690590692019198e-05
738.9253391971254,2.7995421692974016e-05,1.785394702117728e-06,2.6210026990856288e-05
753.7424740524443,0.00015210480013344072,6.622804908525928e-06,0.0001454819952249148
776.4006078578817,0.00011339303397847812,1.2050130524178344e-05,0.00010134290345429977
805.863213245579,0.00030750147374068645,1.852649244173774e-05,0.00028897498129894873
839.7915073098208,0.0005549708125553427,4.584146593681746e-05,0.0005091293466185252
845.222878642925,0.05170945924006067,0.03813424640906212,0.013575212830998553
879.9553646551703,0.00046183602945989977,4.022588205533959e-05,0.0004216101474045602
908.2517873204068,0.032573860120267334,0.019768413130925838,0.012805446989341494
925.2200809827982,0.0009479845181527707,1.76080503445099e-05,0.0009303764678082608
970.9550582344417,0.0007411162915070673,1.1737494531059035e-05,0.0007293787969760082
993.7139882902342,0.0019375631980858936,0.0003544023462886496,0.001583160851797244
1007.2709037173341,0.004525641322136215,0.0019037391287109653,0.0026219021934252495
1012.5268820516824,0.0021738634928004075,1.550747428002177e-05,0.002158356018520386
1016.1535553363464,0.0016970977926671093,0.0009568889208951361,0.0007402088717719732
1020.5127107900552,0.011449122839212384,2.268434707357042e-05,0.011426438492138815
1038.9126272726262,0.0008181497380143909,8.824028143708049e-05,0.0007299094565773104
1043.2865915158982,0.0026886732317773234,2.6246909029639704e-06,0.0026860485408743595
1053.4590570072692,0.0014632169492182921,0.0008756651037264803,0.0005875518454918118
1062.8898471811456,0.0020409367380763185,0.0008152418246038326,0.0012256949134724858
1063.6020809354598,0.0057299558285673746,0.0035623373480960785,0.0021676184804712956
1080.2842671422936,0.011476172628003302,9.46700540273439e-06,0.011466705622600567
1086.049577888101,0.01065911767423786,0.0020703508207846914,0.008588766853453167
1088.5966026620372,0.11036672617291482,0.00010776913989001448,0.11025895703302481
1091.7338420979327,0.0004025450731360277,2.327537631743814e-05,0.00037926969681858954
1092.255207075241,0.0008417169977213396,3.479717999156963e-05,0.00080691981772977
1095.7335187429458,0.006499056832870932,0.00047031514429938273,0.006028741688571549
1127.3685491713952,0.07912214436749153,0.05274206615112798,0.026380078216363546
1138.235727584907,0.018487615504160823,0.0072479805150216445,0.01123963498913918
1155.4052180581145,0.004876078589337576,0.0005685980607144093,0.004307480528623167
1158.5495625932433,0.2675725790758462,0.15698403493218493,0.11058854414366126
1205.2392066049904,0.012632224038693456,1.1134864812649965e-07,0.012632112690045329
1220.1802752186816,0.0014425463835186162,0.0004035047507037147,0.0010390416328149015
1222.8971021559382,0.001118262430050983,1.7432557989100122e-06,0.001116519174252073
1245.7870097608927,0.0008221264819950684,6.2886585883673825e-06,0.000815837823406701
1245.9646337090678,0.0017538579387563061,1.0463331327647206e-08,0.0017538474754249785
1268.4392717369592,0.002554518655575044,1.5014164872585182e-08,0.002554503641410171
1270.9120404563103,0.0009754845078159065,2.0041436729007834e-08,0.0009754644663791775
1285.5397198675423,0.01000352578586787,2.094607125559016e-09,0.010003523691260745
1296.0780717217908,0.0003381088640276299,2.7312451733850778e-06,0.0003353776188542448
1299.1896023981726,0.0014603107457984432,6.458388424490554e-11,0.001460310681214559
1313.9295138533816,0.002244327949994428,2.460280984793675e-07,0.0022440819218959487
1321.7293090221724,0.0017535053083462134,0.000266888777420017,0.0014866165309261965
1324.4312687105564,0.1621305306760706,6.308896270509635e-07,0.16212989978644357
1326.5215892838726,0.009739975900817073,1.2230659321199893e-06,0.009738752834884953
1328.9151223018841,0.0003716160345090612,6.147693542209698e-06,0.0003654683409668515
1333.7572359083954,0.0033380328853070914,4.0753842896251506e-07,0.003337625346878129
1334.5118525239752,0.007350099923844688,1.3435199827131011e-11,0.007350099910409488
1337.959810381987,0.0002729553843109526,3.315559066469928e-07,0.0002726238284043056
1338.5186020636645,0.00010081242510649833,8.479646211648265e-07,9.996446048533349e-05
1346.4832363917064,0.0007196324394538583,4.029287797142932e-06,0.0007156031516567154
1368.2081046906376,0.0024837059750639793,0.000908375995677325,0.0015753299793866543
1382.9502225449837,0.004789796811689403,0.0005232920844195942,0.004266504727269809
1396.3027594526268,0.0007844572278756128,0.0003446213922108171,0.0004398358356647958
1408.7844611366936,0.0027840085331237658,1.1632960129699303e-06,0.0027828452371107958
1412.772532099798,0.0025768844230967614,0.001111086253234456,0.0014657981698623056
1415.959892662224,0.0037779352754434992,0.0024929704700015947,0.0012849648054419048
1417.6427361196593,0.0011478050205182334,0.00037228547467754887,0.0007755195458406844
1420.2741750140578,0.01363470316861035,4.472282079902095e-05,0.013589980347811328
1421.3430080583844,0.0002489442594555811,7.411950994401104e-05,0.0001748247495115701
1422.2267986013528,0.001171188063904116,0.0005452333272008217,0.0006259547367032945
1446.9394152155237,0.003455028811618728,6.563386122072943e-05,0.0033893949503979986
1459.2519916317788,0.03838023558122956,3.4876756536801375e-05,0.03834535882469276
1480.1560735693706,1.3297288322766032e-05,9.188070203165512e-06,4.109218119600521e-06
1480.3251558679895,0.004019476686188764,6.601476604915057e-05,0.003953461920139613
1482.0188546284464,0.0022480970353932895,5.854307024453441e-05,0.002189553965148755
1482.4193107014296,0.0013744072062458687,0.0004477807572396923,0.0009266264490061764
1484.4791496693285,0.0037535918100412373,0.0010623858982677856,0.0026912059117734518
1484.797107711829,0.24593352120229334,0.018871730676487716,0.2270617905258056
1485.3118156188489,0.028242406049914195,3.772007737979352e-06,0.028238634042176216
1487.147244878532,0.050408727151428225,0.0028182494773019897,0.04759047767412623
1490.4723684007233,0.00200614446741469,2.8673122689313588e-05,0.0019774713447253765
1493.7839942780727,0.02705313308041511,2.3871158760884647e-08,0.027053109209256347
1494.5044105060858,0.0066100644961656786,0.0002936215825553581,0.0063164429136103204
1496.683897452024,0.01772644016952877,9.70512591834184e-05,0.01762938891034535
1498.562795714333,0.0007916261937132082,0.00016391817688375863,0.0006277080168294496
1502.185831886701,0.001230198535815723,3.670569470649876e-05,0.0011934928411092241
1504.9545304075548,0.0011167219022650558,0.00016029977290585233,0.0009564221293592034
1506.422424633463,0.0009732562953673647,1.5856532708564693e-06,0.0009716706420965082
1813.8879186874424,0.034186407281040165,0.01258914519210102,0.021597262088939147
3020.323663976668,0.0685479712391087,0.06587070969780143,0.0026772615413072796
3021.2198008842383,0.001053434865286848,0.00011599200793957671,0.0009374428573472714
3021.890621639165,0.14525924459170275,0.1384097330251853,0.006849511566517435
3022.9254172401897,0.062784291580711,0.05771338257605846,0.005070909004652537
3023.4856464077698,0.015700943953792755,0.010099933784842167,0.005601010168950587
3024.887725352066,4.345338766826343,4.270846595962604,0.07449217086373874
3026.511994151567,0.06955407128325215,0.0623682523004315,0.007185818982820656
3030.7346015475246,0.13501938260382285,0.1278700111096895,0.00714937149413334
3033.748171376489,0.45725541138994136,0.45018241077480764,0.007073000615133735
3035.0419034762504,0.1433981178781293,0.1335777493179381,0.00982036856019123
3038.611802072592,0.09821330533805324,0.0898843764273739,0.008328928910679342
3040.9920464964835,0.37065151195870133,0.3393664885518457,0.03128502340685564
3042.8286990592987,1.6027683780585007,0.0002575985096849053,1.6025107795488158
3043.6535406422026,0.03365528305834261,2.8028907926476294e-05,0.03362725415041613
3045.2752087883437,0.3595728512983258,0.031247094170456388,0.3283257571278694
3045.4077001075866,0.8938314609095076,0.8087339477364365,0.08509751317307115
3048.208560323205,0.0004440970002318861,0.00023431973020961936,0.00020977727002226672
3049.795365333961,0.9161461968520787,0.9088724050733851,0.007273791778693544
3052.61316104983,0.0887674503525424,1.1754265035101818e-06,0.08876627492603889
3059.003174298053,0.004309107574046178,4.213494326295234e-05,0.004266972630783226
3062.193716921377,0.12179092013563525,5.6810626644635027e-05,0.12173410950899062
3063.5762755524197,0.25101068923978537,0.24159064884920917,0.009420040390576184
3066.9251182725206,0.039471649915772136,0.00019848217209175983,0.03927316774368038
3072.3095197318758,0.9135556346527509,0.8882044612260175,0.025351173426733403
3073.795253749097,0.0165456224021113,0.00020564103149926409,0.016339981370612034
3076.3327431240727,0.42382742634900616,0.00536916179337282,0.41845826455563334
3079.9599436712087,0.019248343607337987,7.089201063207532e-05,0.019177451596705912
3085.3637614077006,0.020795664551436818,4.446436212499965e-07,0.02079521990781557
3089.276140558476,0.004320547982597126,0.00012469803720990558,0.0041958499453872205
3105.869637132532,0.030718074191182724,0.0005906660276363769,0.030127408163546348
3112.7311744727626,0.1290168559665981,1.7463286472186922e-06,0.12901510963795088
3120.9100571553286,0.4100256776140106,0.06283209721756212,0.3471935803964485
3139.45377099902,0.3235256489117808,0.002303846859850784,0.32122180205193
3145.7042991630633,0.1624435707198269,3.201560189047883e-07,0.16244325056380798
