frequency_cm1,total_intensity,isotropic_intensity,anisotropic_intensity
1.5496000278656896,0.0,0.0,0.0
1.402234726232267,0.0,0.0,0.0
1.1536871413046719,0.0,0.0,0.0
1.8031663659719798e-05,0.0,0.0,0.0
9.644325961536549e-06,0.0,0.0,0.0
1.4525440528281653e-05,0.0,0.0,0.0
24.699078585078468,0.0022177522063064905,2.6592748303856947e-05,0.0021911594580026335
43.0894643628914,9.89654742462637e-05,1.1879559762799586e-05,8.708591448346412e-05
57.816171246000515,0.00048133381522295926,0.00017135875354851873,0.00030997506167444055
68.351022018737,0.0007251573380950894,1.4274381327541084e-05,0.0007108829567675484
72.37935220823282,0.0026327381889772973,4.200981218749567e-06,0.0026285372077585476
101.51629549114247,0.005083108817413052,0.00032266734989506166,0.004760441467517991
139.43432814914354,0.01602554299535412,8.446345085112389e-07,0.016024698360845607
156.3345997555934,0.00220042334867681,3.862177051575744e-06,0.0021965611716252345
161.88606914425614,0.0005672278797902084,1.9601062557042243e-05,0.0005476268172331661
189.83846744072537,0.0005844058931914798,8.596918690445416e-05,0.0004984367062870257
201.6977009126146,0.0008968475060670341,0.0002195177224810949,0.0006773297835859391
215.7095485204796,0.002151934945265526,0.00015077938577424512,0.0020011555594912807
233.5035879040209,0.00134896269315945,0.0004212028048942527,0.0009277598882651973
239.15527620612596,0.003753887292547107,0.0025433442080689673,0.0012105430844781395
251.83327788304032,0.0010090278152815595,0.00015571336891490926,0.0008533144463666502
255.79420751648746,0.017756532095908873,0.013825995163197189,0.003930536932711685
266.93289508066334,0.002853245588068977,0.00011481421414212604,0.0027384313739268512
276.47702904101925,0.007316931260432979,0.0006543113358147475,0.006662619924618231
282.8455069254616,0.0065857019977003835,0.004686852438898439,0.0018988495588019437
317.61809593696154,0.008928228171268737,0.0014593476696613148,0.007468880501607422
320.99215421081277,0.0031135475005308983,0.00046762392081620835,0.00264592357971469
334.08163891236154,0.014227133886703528,0.013565783497543575,0.0006613503891599519
353.6281486045025,0.0027371123646516165,1.0875067362480247e-05,0.0027262372972891363
356.9379012070052,0.001674008704056876,1.948973878208262e-05,0.0016545189652747935
365.4186329671675,0.0014215369131024805,0.0001345451717104444,0.001286991741392036
372.55793301126175,0.00010230849236088841,1.0087716813015076e-08,0.0001022984046440754
375.3836445424298,0.0030779306362084926,0.00130887958954911,0.0017690510466593827
395.22171265779787,0.005237697423723562,5.602823027238187e-05,0.00518166919345118
406.3513605213864,0.00033245913361899777,0.00013522247267134873,0.00019723666094764904
412.36877567991564,0.0001513379112933541,2.439719192639967e-06,0.00014889819210071412
418.1482193502766,0.0022290784809934714,2.6712854710600805e-05,0.0022023656262828706
447.98072248402985,0.0030058410010256466,0.00017043604003328462,0.0028354049609923618
455.72073635105244,0.005208552824009876,0.0038440123762997517,0.0013645404477101242
466.8924448226645,0.004057383692540886,0.0019287324913498862,0.0021286512011909997
529.9123945468184,0.012295796881671634,0.0017359460563024349,0.0105598508253692
543.064075560576,0.026500310268971393,0.021219459214141426,0.005280851054829965
592.3896769830405,0.06796711831615931,0.06502135307233041,0.0029457652438289058
626.1453156508494,0.003574275151364796,0.002614037517359947,0.000960237634004849
640.9094337458572,0.0026757501624968885,0.00033354119231344156,0.002342208970183447
666.3541230577138,0.029780136778997754,0.028576011333722378,0.0012041254452753772
775.1109674560552,0.00680926623954468,0.00017403149103553927,0.00663523474850914
809.5493164738858,0.006031574991134766,0.004877542017219194,0.001154032973915572
811.5971486441072,0.04410609065893562,0.04216072991387317,0.0019453607450624515
837.8511337367344,0.04537557259018805,0.030716837696520102,0.014658734893667945
874.2823506218003,0.05869969016653574,0.047536597538487664,0.011163092628048077
911.2431219362121,0.001073626237330992,4.271464266049511e-06,0.0010693547730649424
926.9393617663998,0.004118732239814521,0.0005578534333931327,0.003560878806421388
941.2834977086364,0.01841021733648442,1.7981723399568926e-06,0.018408419164144464
946.9360762074206,0.02357034797264225,3.625488756619213e-06,0.02356672248388563
952.5457449601446,0.02104540344500527,9.05196039721631e-05,0.020954883841033105
955.2721468462051,0.0056980474029533525,2.7208293164875654e-05,0.0056708391097884765
956.3534878640543,0.017049863043425456,0.0001053574545284469,0.01694450558889701
966.3248527898022,0.0001490793647160617,2.074900516416489e-06,0.0001470044641996452
972.1795193503937,0.0005152358725424148,4.563132390616568e-06,0.0005106727401517982
986.2207172035083,0.03853319316955607,0.03358785724595972,0.004945335923596354
1012.385484127767,0.002790526099952292,0.0009343610299153718,0.0018561650700369202
1043.7201208706858,0.007002883093448609,6.659743593340743e-05,0.0069362856575152015
1050.519806040002,0.007325286269597378,0.0005633203899859345,0.006761965879611444
1056.4697072992653,0.005838020245927927,5.843628901111803e-06,0.005832176617026815
1057.6813468877035,0.010263041575570725,1.7220716839162313e-05,0.010245820858731563
1071.0139159313617,0.01618273138049412,0.0029492391098285835,0.013233492270665538
1073.226908370825,0.005345540475651629,0.0011093253970191768,0.004236215078632453
1122.2246073250317,0.0026417383961709895,2.610499744382556e-05,0.0026156333987271637
1152.8128690158483,0.008649061781299974,0.007229807599025773,0.0014192541822742005
1173.9346012954493,0.004275537339425259,0.0005609839093749554,0.0037145534300503033
1185.1178013799497,0.007665782597160454,0.0015430832519604048,0.00612269934520005
1216.7940486407444,0.017230117521097675,0.002766279778492557,0.014463837742605118
1219.1872981109786,0.040433222479115266,0.008095206788667712,0.03233801569044756
1236.101463842433,0.03915747311254249,0.00403984142617223,0.035117631686370256
1236.8551709766425,0.04249495964936796,1.669906260318616e-05,0.04247826058676477
1242.986836785219,0.04113719562772627,0.00023362722726359117,0.04090356840046268
1245.3107848455115,0.012659208869429272,0.007446491783666314,0.005212717085762958
1277.2904395206397,0.035475434826429175,0.018585864334975832,0.01688957049145334
1280.1539691044422,0.012666606532232044,0.005859828098590426,0.006806778433641617
1293.0147986565707,0.007712163997072415,0.004014841863598398,0.0036973221334740173
1310.9227127563556,0.0064250101130431695,0.001468605744950228,0.004956404368092942
1316.8756151952177,0.018828766517905483,0.0015982318974470777,0.017230534620458406
1343.013224183995,0.06594986031820693,0.04789193254651931,0.01805792777168763
1347.4371238799433,0.005121518057746754,0.0027326430156744182,0.002388875042072336
1394.966585844311,0.0018317213760733592,4.784577046346052e-06,0.001826936799027013
1397.246321404085,0.004378805945350779,0.0020234032123504658,0.002355402733000313
1400.5498721378979,0.007556368432083464,0.004336907532162077,0.003219460899921388
1405.423915218293,0.024154340244510474,0.013838518890530647,0.010315821353979827
1411.931496971504,0.0008223752342524265,1.9106890116455423e-05,0.000803268344135971
1426.307411970042,0.0044427174070140515,0.0013630611622180396,0.003079656244796012
1436.684347862517,0.0024671704974652143,0.0007690231233097692,0.0016981473741554452
1440.208370530545,0.01234620907102873,0.000740030643575353,0.011606178427453376
1467.2752053541628,0.013897531674188664,0.00546848992595328,0.008429041748235385
1475.7864512601507,0.00476687545117203,2.6517917473381355e-06,0.004764223659424692
1477.1648704213926,0.01303159801242948,2.0446341977460625e-05,0.013011151670452019
1480.2807315802172,0.032011838248153845,0.0006355961755572663,0.03137624207259658
1481.8299570796491,0.01163961334491238,7.72419100901104e-08,0.01163953610300229
1484.2751472067216,0.01988293847377687,3.3447493310558803e-06,0.019879593724445817
1484.6488778705857,0.01471987770497563,0.0008687276043303132,0.013851150100645316
1490.7430317635974,0.0148465023177221,1.8292626898448564e-07,0.014846319391453115
1492.2796646690128,0.03071358904509237,1.5213197910177351e-05,0.030698375847182192
1492.8045025842537,0.042405967469273005,1.1717577627441985e-05,0.042394249891645565
1496.1145624630446,0.03357506502437973,5.702161021883158e-06,0.03356936286335784
1498.8412969918852,0.006751172621428211,3.95094492998873e-05,0.006711663172128323
1501.5345340732931,0.015040626194207448,0.002569130409578057,0.012471495784629392
1502.0922973855188,0.018965682270086447,0.0013714606080554893,0.017594221662030958
1504.7785179723041,0.03899374439363407,1.529371642005703e-05,0.03897845067721401
1508.8989989085755,0.045243546624369094,0.0005485622188301979,0.044694984405538894
1509.785387996043,0.012569465317183826,0.00012554649186807294,0.012443918825315753
1519.3175658840753,0.004982848106919347,0.0029562004256214226,0.0020266476812979247
1521.4899398318096,0.029529619917499805,0.010406749076415018,0.019122870841084785
1527.1188215374295,0.012717915391094313,0.008824757355426125,0.003893158035668187
1672.91510540507,0.05542055883389793,0.0018957377131860762,0.05352482112071186
1685.0215117402481,0.09749512552450601,0.0045030235785058735,0.09299210194600013
2931.1811804802346,0.23285120386200486,0.18255867996333605,0.05029252389866882
2948.212487243199,0.10173838906163439,0.013198734512579592,0.0885396545490548
2958.1522102171525,1.3124939122353114,0.9942672498697568,0.3182266623655547
3054.7720639123504,0.050211041188837645,0.01890341689742568,0.03130762429141196
3055.850435977599,0.09505094638214634,0.05318956284647253,0.041861383535673806
3058.935313402491,0.018521045195714722,0.008384409254924318,0.010136635940790402
3060.536498613734,0.03198975138297605,8.581087976158178e-06,0.03198117029499989
3062.0848063460644,2.0118889302738228,1.8776117735497941,0.13427715672402857
3065.8720800250617,2.7307108043236825,2.6168019666425737,0.11390883768110889
3068.5085901332495,0.4521260648780492,0.2870466435941851,0.16507942128386408
3092.900400324721,0.5883977298507346,0.4104687049759824,0.1779290248747521
3098.7367008559104,0.6528891095385875,0.4190164280030693,0.23387268153551818
3110.8922558856966,0.07437837926832763,0.0003810167519344964,0.07399736251639313
3113.0271310132266,0.2769403802425853,0.004793261836603993,0.2721471184059813
3124.307909888161,0.5828794647280949,0.03601935035486736,0.5468601143732276
3125.687968898913,0.05075361674150729,0.004134301464641832,0.046619315276865456
3127.1913268642315,0.01731015717284493,8.51631449558777e-05,0.017224994027889053
3127.691483074733,0.18609158518315866,0.0011923642150153723,0.1848992209681433
3133.0452521760394,0.7442576372562222,0.010511537656091061,0.7337460996001312
3134.3842558129377,0.027158376376792304,0.00035912696693403455,0.02679924940985827
3135.470583173143,0.2724049758676229,0.0012169655513964276,0.27118801031622647
3138.1115085441634,0.25896476680359,0.0059680889423123825,0.2529966778612776
3139.46429486062,0.24939544984847506,1.632951523513897e-05,0.24937912033323992
3144.9424135226213,0.22317879503373786,0.0006809437970193462,0.2224978512367185
3174.7312904114856,0.060963574489358775,0.004308187041180503,0.056655387448178274
3177.27074890462,0.25758797883653295,0.05037351207048626,0.20721446676604668
3225.6183998622278,0.23974827711659985,0.1632671200816211,0.07648115703497875
3241.529804503378,0.24183831057610067,0.17167499351963378,0.0701633170564669
3916.0589239863907,0.3493671227391775,0.27137566386525436,0.07799145887392318
