frequency_cm1,total_intensity,isotropic_intensity,anisotropic_intensity
1.6940537898331292,0.0,0.0,0.0
1.3355538920891612,0.0,0.0,0.0
1.1816654090753315e-05,0.0,0.0,0.0
2.413212796176048e-06,0.0,0.0,0.0
2.6262975754917437e-05,0.0,0.0,0.0
1.0678904297935072,0.0,0.0,0.0
15.993296285991786,0.009070703662471747,1.6838184996038657e-05,0.009053865477475708
23.164737928353656,0.002984707153610616,8.262794928630165e-05,0.0029020792043243145
40.070145924634495,0.017021428483095572,1.9294941068166117e-06,0.017019498988988756
53.94972120746984,0.02111534742169626,4.2093606076932006e-06,0.021111138061088566
64.12557816319112,0.036458411221104735,1.7051433893361913e-05,0.03644135978721137
81.00240193895782,0.005681619215320187,0.00010935333132428434,0.005572265883995902
87.51412880141022,0.016053165907330615,9.56319927783223e-05,0.01595753391455229
100.65655965615885,0.012990323783618,5.823998777864105e-05,0.012932083795839358
118.38192119156658,0.005894460122215488,0.0011817633096377167,0.004712696812577772
209.95379392345276,0.010655468032843828,0.0031360146514406496,0.007519453381403178
216.09917306438263,0.003972676367068482,7.562736803097919e-06,0.003965113630265384
235.30395400878055,0.006351067851548785,0.0005760145170018634,0.005775053334546921
277.00784145281165,0.009272274667732254,0.0005033760361184948,0.008768898631613758
280.2377277410852,0.026449328420868043,0.023799387455168037,0.0026499409657000077
289.43479534646457,0.00969531218601984,0.004036530075072725,0.005658782110947114
307.2244480625218,0.0065076148970229925,0.0003115334606903545,0.006196081436332638
327.9268795338215,0.006616171225509147,0.0015725941507638817,0.005043577074745265
369.09863218261506,0.0056778733109973355,0.004773317337170887,0.0009045559738264492
416.0632596141562,0.00022240808263850165,3.178826417920339e-06,0.0002192292562205813
419.4269259593531,9.20753972198008e-05,1.0260826456532044e-07,9.197278895523547e-05
423.38088608294584,0.00024935062439503857,1.0341846013949163e-05,0.00023900877838108943
483.87758848576823,0.0013357488476679153,0.00028589271789452973,0.0010498561297733857
512.7923297838815,0.0008789936804525245,0.00012341181212299854,0.000755581868329526
532.2274391081755,0.0019980305139927408,0.0003168955362381349,0.001681134977754606
555.204462146504,0.010471603459447702,0.0010139405681612445,0.009457662891286456
617.9135948643567,0.01053114720219686,0.004475082858975972,0.006056064343220887
626.758895131603,0.010611879361567085,0.002411141401275774,0.008200737960291311
629.6583969203647,0.019189982368785663,0.0004923195748802624,0.0186976627939054
635.8511633575217,0.011313698554558207,0.00027783280041331705,0.01103586575414489
636.8209714659981,0.022716574503494492,2.6002687440422064e-05,0.02269057181605407
640.1093001398224,0.014366385879671156,1.098578887874137e-05,0.014355400090792414
663.8258275060082,0.009498506020711112,0.00041894307330799283,0.009079562947403119
709.9303261563564,0.07314750486926934,0.06895902921967181,0.004188475649597525
721.3350262929878,0.0010387956774137817,0.0004880012399785029,0.0005507944374352787
723.4520269542415,0.0008185526133600182,0.0006488540678042505,0.00016969854555576772
724.762760012887,5.149089847816917e-05,2.962956892250578e-06,4.852794158591859e-05
751.2152483164618,0.011404674754231174,0.008496741424146125,0.0029079333300850497
782.0179253697484,0.006626805029522004,0.0002190784087502948,0.006407726620771709
789.5123384696375,0.010000023833249048,0.004596102688481266,0.005403921144767782
797.6403361560102,0.008430175324205275,0.007698231514955312,0.0007319438092499632
850.3189954498939,0.012444356063027774,9.145980987818739e-05,0.012352896253149587
873.7020483702003,0.003554988204585151,0.00010670174565648471,0.0034482864589286664
874.3152920956244,0.0026524697417146725,0.0010549980933693963,0.0015974716483452764
877.7522755677725,0.004220247393700522,0.0005342900367732654,0.003685957356927256
886.4756195262007,0.019024478669963804,0.005585635691736459,0.013438842978227346
944.7769522535602,0.019465815269756822,0.010952293857282459,0.008513521412474363
953.1637645043238,0.006147320240630159,0.002957786969946082,0.003189533270684078
958.2185542555883,0.003139410268929188,1.8837423331129026e-07,0.0031392218946958766
987.6750632114071,0.030178916240429256,0.012699639161932591,0.017479277078496665
1008.0093318794503,0.00796492170930171,0.00038292424335650274,0.007581997465945206
1013.1253764697049,0.0017311336269767092,0.00111697757867914,0.0006141560482975691
1014.6901354374023,0.014916889675976925,0.009151861074268137,0.005765028601708787
1015.8831404919878,0.0020314789780676327,0.0012840413155489018,0.000747437662518731
1027.7972113002013,0.03783446509349353,0.011616837390088255,0.026217627703405275
1028.6544364803854,0.14791268457198892,0.13652085368552,0.011391830886468909
1028.9397205965229,0.04981907753951878,0.04710525951555754,0.002713818023961246
1029.4307484263168,0.06550111614061543,0.06201958690804589,0.0034815292325695484
1030.0283038950606,0.010605169294673722,0.00673637484915836,0.0038687944455153625
1030.1863134760786,0.1002689158341853,0.0846661374170265,0.015602778417158802
1059.3741461600982,0.314001620974934,0.27396239480531714,0.04003922616961686
1070.6381916184137,0.15059931371243576,0.13426981510565936,0.016329498606776405
1074.1190164284112,0.015934330768886326,0.0018015210835881609,0.014132809685298165
1077.366768584109,0.10748434014071491,0.1025766164173487,0.004907723723366197
1122.7253374056377,0.003840294184071827,5.316682963262396e-05,0.003787127354439203
1123.654767982459,0.0017611037299297891,0.0004363886094878419,0.0013247151204419472
1131.2570822727434,0.0070023508971941845,0.006787752259777737,0.0002145986374164479
1168.3489400364056,0.0069644611296478505,0.0009963329439818547,0.005968128185665996
1174.7188017850099,0.008208336380455197,0.0010153808577749639,0.0071929555226802324
1175.9151854895167,0.013478583984637305,0.00022632494455547235,0.013252259040081833
1177.3959047786893,0.014598768367790033,0.0002511954523818875,0.014347572915408145
1206.7674223684544,0.21569184751764317,0.20764013121473668,0.00805171630290648
1213.4941313271531,0.07375685815629784,0.05610698961798495,0.0176498685383129
1219.2664827781934,0.02676137678748266,4.375144668162736e-05,0.02671762534080103
1223.7603912881411,0.05635136324881386,0.028012250031810303,0.028339113217003553
1227.890857444811,0.03424394148752401,0.005792264585527501,0.028451676901996504
1236.2303532695169,0.022486241772387307,0.014605651514836986,0.007880590257550321
1286.250389937696,0.01996892604129579,0.00501177017431418,0.014957155866981611
1304.1666736633333,0.027447184437906027,0.022331904647035997,0.0051152797908700295
1312.313466565836,0.006016402101285004,0.0003809798160231646,0.0056354222852618395
1318.3559833217269,0.007696227715688707,0.0038137473660821335,0.0038824803496065735
1322.5502876757414,0.017493246700482742,0.0016614261230678599,0.015831820577414883
1364.755665104485,0.004192954190783898,0.0020069682179661226,0.0021859859728177757
1366.9413026720206,0.0018062590757746502,5.035669301541084e-05,0.0017559023827592394
1374.0169232950389,0.0011859064661038537,0.00020370159646173155,0.0009822048696421222
1415.3175104619866,0.010454665279173285,0.00025422621740542556,0.01020043906176786
1475.6032357539298,0.01674647229648101,2.9652383297811385e-05,0.0167168199131832
1488.7693557620491,0.002982644972702943,8.709670498224723e-05,0.002895548267720696
1492.1655370784533,0.003312031191987023,3.2789119759644635e-06,0.0033087522800110585
1494.847498360906,0.005438807892842129,2.8264860393630253e-05,0.005410543032448498
1543.83836593649,0.0032711578342517595,0.0025309490812194034,0.000740208753032356
1546.4602250397813,0.0036436932482941426,0.0001608454912411585,0.003482847757052984
1550.476217700991,0.002527031495100625,0.0006711194944939889,0.001855912000606636
1657.8835377684707,0.029358298713199546,0.0024719510771836414,0.026886347636015905
1659.8011012348625,0.052425413429295256,0.0028755498493867574,0.049549863579908496
1662.8242728887783,0.07947882443112562,3.627910365957078e-05,0.07944254532746606
1679.5824025690176,0.10578764776606472,0.002516955108782101,0.10327069265728263
1681.5413920567378,0.10584897395953582,1.0270414852531833e-05,0.10583870354468329
1685.5612312561732,0.07389299528431376,0.04008702067979201,0.033805974604521755
1843.8309801743324,0.04385104908545412,0.029581311583802627,0.014269737501651489
3107.4997591074853,0.27694201477477726,0.23587577063953294,0.04106624413524434
3164.135896529034,0.13285030157688546,0.014780518112076714,0.11806978346480874
3190.3354477604116,0.10529046693749443,0.0006932654043993904,0.10459720153309504
3190.920973963217,0.11491447382097633,1.5588166110529114e-05,0.1148988856548658
3191.9018391577238,0.19552672644021168,0.0015515410699125727,0.19397518537029912
3197.989656370444,0.3130882930992717,0.061467418135433924,0.2516208749638378
3198.33756390599,0.49863267349171275,0.0002888888232545118,0.49834378466845825
3202.363928345627,0.47914521343927463,0.005794577789762997,0.47335063564951163
3207.690493471564,0.3978937432361113,0.0012828224983997317,0.3966109207377116
3207.883977438288,0.21875683438065366,8.388257623817501e-05,0.21867295180441548
3211.395525049055,0.2137061914411007,0.060004953899638225,0.15370123754146248
3218.2089636550277,0.8973578096833444,0.5848706431684051,0.31248716651493935
3218.4430490295335,0.929457463456054,0.6517185624416452,0.2777389010144088
3220.0115929792005,1.1979747427265008,0.9784643371910411,0.21951040553545972
3229.5484731808774,0.6472357137365475,0.5119318487357378,0.13530386500080968
3237.7617063539765,0.5525289274266432,0.4370302350273859,0.11549869239925722
3263.1354375430233,0.28658514945713187,0.2197570692483567,0.06682808020877518
3791.189712889384,0.4530515377014953,0.2491137028207438,0.2039378348807515
