frequency_cm1,total_intensity,isotropic_intensity,anisotropic_intensity
2.0870344859590704,0.0,0.0,0.0
1.3915078337676956,0.0,0.0,0.0
0.3203141771439114,0.0,0.0,0.0
1.8976963974982654e-05,0.0,0.0,0.0
1.3683594930397597e-05,0.0,0.0,0.0
1.578105411147899e-05,0.0,0.0,0.0
18.039553435690006,0.0067772791637013274,1.3177030150027687e-05,0.0067641021335512995
20.772405606055138,0.012409608098361169,3.3258579868962304e-07,0.01240927551256248
33.79523502443464,0.00966279979951698,8.98030631707542e-07,0.009661901768885272
42.41749316461433,0.010606452989254545,3.4410433804553013e-10,0.010606452645150206
74.43233055349934,0.018309281579543982,0.0002128631999517817,0.0180964183795922
141.7229779088238,0.007374375891393029,2.707441105063992e-07,0.007374105147282523
155.49682549693804,0.009934202287865236,4.414079905189349e-05,0.009890061488813343
186.89829905807957,0.001173315160291806,9.730123559088952e-08,0.001173217859056215
225.26057477357264,0.0062310910028246375,0.002586995354217246,0.003644095648607391
241.03930060282846,0.0002614638759339559,0.00017272157387853676,8.874230205541911e-05
242.05371129861925,0.00813032174056392,0.00573356000552931,0.00239676173503461
276.5714130924152,0.013612364589896467,0.0056831978443263355,0.007929166745570131
313.9873741100566,0.000581999870103619,1.0603724561988017e-06,0.0005809394976474202
332.26955316708205,0.007453786086804315,0.00670379905464343,0.0007499870321608851
400.20741429744044,0.0015204536184184455,2.3351305356123474e-06,0.0015181184878828333
414.4469131583595,0.00014999303085479605,2.0398465277116624e-07,0.0001497890462020249
414.60495410766856,5.7211501061847414e-05,2.1538199025093077e-05,3.567330203675434e-05
430.88781450302594,0.004221974668794306,0.002779716000823091,0.0014422586679712155
521.9428636266863,0.006332302944190851,9.390445549737709e-08,0.006332209039735354
548.9357007718432,0.007209996962534434,0.002966426200135887,0.004243570762398547
559.0398918465693,0.00016658015308409352,5.887476780985951e-07,0.00016599140540599492
627.2691865853745,0.0008033473108601681,2.3492790082811167e-07,0.0008031123829593399
631.0539592105652,0.01682121764145842,0.001646261035611212,0.015174956605847207
637.1605535924114,0.012309332196698887,6.55941772829876e-08,0.012309266602521605
638.1975197958694,0.01317604066875657,0.00020810517892991007,0.012967935489826658
721.0978342162558,0.0011615434263854219,0.000908662948772131,0.0002528804776132908
721.3717137325743,5.240851100279458e-05,1.3553114827865482e-05,3.88553961749291e-05
783.8442494021583,0.0005241192708235836,9.784464735543429e-05,0.00042627462346814926
784.5024591228017,0.005527615404006879,0.0007019974872279336,0.004825617916778945
792.445616292701,0.001110773621414093,5.469398229153991e-07,0.0011102266815911776
819.0852983000314,0.09807926658938478,0.09639539949687888,0.001683867092505891
875.1042244579006,0.002657110672287076,3.3326082205248104e-06,0.0026537780640665514
875.2818262545362,0.004401699635770352,5.380664605106572e-07,0.004401161569309842
891.717505189671,0.017024260561894995,0.0008636851676201728,0.01616057539427482
944.1795680951379,0.004803491829383697,2.6504825855733046e-06,0.004800841346798124
947.2768976735259,0.008995752445845981,0.006920725314974553,0.002075027130871428
958.1793619614045,0.005828632535802241,8.906029911023904e-07,0.005827741932811139
1010.4027794508037,4.043576646876932e-05,1.4200445238503544e-06,3.9015721944918965e-05
1010.7406485615472,0.00031558921593913497,3.6084825274691794e-05,0.0002795043906644432
1026.376463931886,0.003962945459359367,0.0001120881762991431,0.003850857283060224
1026.998344271531,0.28612961067108234,0.25573610993541807,0.03039350073566425
1028.7435014715322,0.014016235575944079,0.01145166664783784,0.002564568928106239
1028.763388569172,0.0058847079247922015,0.0044233048725803225,0.001461403052211879
1041.5194508472619,0.1856405396722666,0.11956266153991885,0.06607787813234775
1042.761641436183,0.0045423414607503616,0.002558853208882141,0.001983488251868221
1063.29991519781,0.0026526256061455062,1.004935847874956e-05,0.0026425762476667567
1064.9439192919428,0.1483767917933468,0.137355769993233,0.011021021800113799
1100.9088034740103,0.006549404663434527,0.000833063461298241,0.005716341202136286
1102.5164426192284,0.0037662641787849205,1.6841508683242444e-05,0.0037494226701016782
1108.433247613598,0.07237628789818795,0.055644012497934894,0.016732275400253058
1121.6901770601994,0.007164886787652591,4.483894801997307e-07,0.007164438398172391
1140.9496598076337,0.006079915440447984,0.0009665923048671156,0.005113323135580868
1153.1296024848575,0.008176896729803918,4.874776639420821e-06,0.008172021953164497
1174.9235902286296,0.006853080112659213,4.4744248741920284e-09,0.006853075638234339
1176.1844067523043,0.021677296114556266,0.0004265230410536712,0.021250773073502593
1202.7522776593091,0.031120773335493387,1.8928628782611012e-07,0.031120584049205563
1204.695741448075,0.01664717980419778,0.0032220198145635156,0.013425159989634262
1238.3152176818576,0.0020922118177121485,5.891016585057049e-07,0.0020916227160536426
1247.1703156299036,0.23690113868587973,0.17873278998131492,0.05816834870456481
1310.4006507898632,0.0008634657210212983,2.8523809097193467e-08,0.0008634371972122011
1318.589418924224,0.026971819460420543,0.023619963221182552,0.0033518562392379904
1343.6868584660128,0.008622605233892524,7.907601443801175e-09,0.00862259732629108
1349.9200435586558,0.009066162700570014,6.269909666427885e-07,0.009065535709603372
1352.4500831519897,0.020635827800293882,0.012543270130901287,0.008092557669392597
1365.6062068359536,0.02941259041502107,0.023598585370011256,0.005814005045009811
1379.3550796286931,0.0023145055327426296,7.0426698387248395e-06,0.0023074628629039047
1396.3645401272845,0.009702549346531236,0.0043681365319372155,0.00533441281459402
1400.3108437547435,0.004085200267081152,6.647897523509747e-07,0.004084535477328801
1423.5823539076143,0.042051571858499594,0.007481519806110088,0.034570052052389506
1478.2151478530986,0.01747273480968628,1.439858799351782e-06,0.017471294950886927
1481.4158213832827,0.046078648509066164,0.0062017628269459895,0.039876885682120174
1488.7921255040349,0.02619288828351208,0.00017241707716488577,0.026020471206347193
1489.5231171843438,0.0014176826847448734,1.234325270576867e-06,0.0014164483594742965
1500.1623262958542,0.0029408858233415784,9.903443320241605e-06,0.002930982380021337
1500.8762218348922,0.012876845125359708,0.002041571616517453,0.010835273508842256
1546.30761298025,0.0006573493833140018,4.329073322536005e-05,0.0006140586500886418
1546.8976621965778,0.005295888239367676,0.003176266344976781,0.002119621894390895
1663.7401634654439,0.009845843537414465,8.702660249977422e-06,0.009837140877164488
1664.6495796344818,0.07508447032904145,0.0008449104311996031,0.07423955989784184
1686.118059076281,0.20484566315585076,0.0005023077175237656,0.204343355438327
1686.9402437944927,0.1656415174992742,0.0564364193269057,0.10920509817236851
3027.1870633072494,0.12748948617322892,0.0003044151966794853,0.12718507097654944
3038.0876607773107,0.2287012767897596,0.19167165284774856,0.03702962394201103
3063.729450341268,0.6403301473283105,0.6158915360357566,0.024438611292553817
3063.895580889958,1.1639941407086638,1.137121055919515,0.02687308478914869
3136.0342551736485,0.29089339356278504,0.0019464293535664157,0.2889469642092186
3136.505443256148,0.17871720208770625,0.013190206698298302,0.16552699538940796
3142.8522099799698,0.23202883808337907,0.00039220745382108623,0.23163663062955797
3143.1155606291004,0.15529846285915738,0.028638084159574084,0.1266603786995833
3179.114712806231,0.22931916152625903,0.0797967664921302,0.1495223950341288
3179.582674798873,0.23476719637747656,0.08179998536113792,0.15296721101633864
3194.272630226495,0.31323447314558683,0.03577730347201495,0.27745716967357187
3194.424901026894,0.4048782920537295,0.05597511254273174,0.34890317951099775
3204.3259641390696,0.4739572513250113,0.02918098871995299,0.4447762626050583
3204.544932562171,0.456893042121026,0.03877436957918745,0.41811867254183854
3216.4132553644986,0.10229129142615441,0.0008702473134308508,0.10142104411272355
3216.5382399605037,0.9446213548929936,0.73523231205223,0.2093890428407636
3224.4589534569423,0.9323590638069094,0.7486122713298204,0.18374679247708894
3224.7446729640787,1.3812267636539786,1.1165163384927481,0.26471042516123044
