frequency_cm1,total_intensity,isotropic_intensity,anisotropic_intensity
1.0107450905156015,0.0,0.0,0.0
0.845002639643235,0.0,0.0,0.0
4.069229651307592e-05,0.0,0.0,0.0
3.092919347361396e-05,0.0,0.0,0.0
2.568703147346235e-05,0.0,0.0,0.0
1.3688879957137101,0.0,0.0,0.0
28.44763679133627,0.0013990612046642108,3.428464260364275e-08,0.0013990269200216071
40.96723775221272,0.001362362270290477,3.318136924727937e-07,0.0013620304565980042
66.06218087612636,0.0049140977125041105,1.7902043030382127e-05,0.004896195669473728
96.57458254482833,0.0074179686094719074,7.90351726766039e-06,0.007410065092204247
110.48608066921793,0.004319406679369825,0.0001157723726266057,0.004203634306743219
134.88877341391827,0.002523468117300371,0.0002505958225704717,0.0022728722947298993
161.4524891849058,0.01285953746966112,6.72960239738058e-05,0.012792241445687315
171.196208984932,0.0018747182402583176,4.104101947692803e-06,0.0018706141383106247
224.18945428075884,0.005090817494967778,0.002909097979946738,0.0021817195150210396
230.9044092174806,0.00037166532555764386,1.2916637679328801e-05,0.00035874868787831506
246.3164211586992,0.0014896994462396272,0.0010836439555315333,0.0004060554907080939
250.05774592328052,0.004262857253793081,0.0017421414596749244,0.002520715794118157
253.47740736917143,0.006940641106265421,0.005257268715018319,0.0016833723912471027
272.5050120492196,0.0012268140149606997,0.0009383766316104576,0.000288437383350242
273.62868487747096,0.001730923657056247,0.0015615462230636737,0.0001693774339925733
290.2588614371656,0.002356697587266926,0.0004054062288596112,0.001951291358407315
311.1670674269774,0.009527538305507413,0.006964018081247634,0.002563520224259779
331.0930662507871,0.001666269192209773,0.0006428240849811108,0.0010234451072286621
335.41704240589144,0.0010990349724805944,5.498999067852508e-05,0.0010440449818020692
365.35115594268115,0.002026170877183048,4.0490778252193064e-05,0.001985680098930855
440.067105045484,0.02347497473386875,0.022602829003550175,0.0008721457303185751
447.27580416203386,0.016486557115426532,0.013597714324399716,0.0028888427910268156
465.90936063177344,0.002909369149513078,3.217310565336835e-05,0.0028771960438597095
496.7658865879121,0.00784210043176146,0.004839882179733933,0.003002218252027526
530.6502691364735,0.003447660882731821,0.0009088503148406991,0.002538810567891122
569.1596532795398,0.015263439288367962,0.007020748026886641,0.008242691261481321
590.0348848182454,0.004811295823811385,0.0018150251107873052,0.0029962707130240795
665.7911960563715,0.0020855923368358164,0.000202863638143146,0.0018827286986926703
686.7388823772693,0.007349838540227242,0.002295046905635643,0.005054791634591599
738.4209229945085,0.1017468024315089,0.09430520637488798,0.007441596056620908
793.9298715837696,0.002288762984521493,0.0005546264713556845,0.0017341365131658087
858.0143134387241,0.021121254162866636,0.015791014528071513,0.005330239634795125
860.4046086028914,0.00544497724701085,0.0030981643742338037,0.0023468128727770466
907.9041851921563,0.07174516350381924,0.04383455579614301,0.02791060770767622
913.3255582017532,0.011383382214625537,0.0034206956455920144,0.007962686569033522
928.1441159264095,0.0019609126002495553,6.426690418269996e-05,0.0018966456960668556
930.7756409681806,0.0008379205600460531,0.0001130247292736447,0.0007248958307724084
931.0741931873927,0.006597207104818143,0.000632101748713411,0.005965105356104732
937.132605295546,0.0014779114247421852,0.0002898229764466891,0.0011880884482954961
955.1452567848274,0.010318366358105447,0.0022868623221847513,0.008031504035920695
972.9015756632059,0.015780054052697237,2.657515438916364e-08,0.015780027477542848
973.4295421969726,0.003968285103414418,7.013921894103176e-07,0.003967583711225008
980.1596173156995,0.018889611884831518,0.0001365567164054135,0.018753055168426104
989.2729744307285,0.00032185511166038093,3.429883133568013e-05,0.0002875562803247008
1074.5854197517547,0.016836198897649517,0.013334161681046461,0.0035020372166030553
1078.5490637709781,0.07450608090253005,0.06293674652885493,0.011569334373675123
1100.9214198209434,0.00253821380730528,0.0002160194780547891,0.002322194329250491
1115.6116513855618,0.005360470420624424,0.0011721848754978942,0.00418828554512653
1139.700833478332,0.03180742709679971,1.7183907588588073e-05,0.03179024318921113
1140.2799376000803,0.008511164292165157,0.00014012825544469938,0.008371036036720457
1144.9707221649344,0.04619164610010322,0.008644597346803768,0.03754704875329945
1164.4311531887067,0.0023911061663585602,0.0018585046661333182,0.0005326015002252421
1174.4335962552504,0.014056203805031968,2.8093665196390107e-05,0.014028110139835577
1192.6986891975448,0.00399313757755511,0.0002687836336103029,0.0037243539439448074
1212.8341208590361,0.01642965475509399,0.005171678453796501,0.011257976301297486
1241.3786251001663,0.006163975211745127,0.005033279566807135,0.0011306956449379918
1279.4216753416606,0.13248411810391528,0.10437880267697483,0.028105315426940447
1284.751390703964,0.08948818110497965,0.07196987203665045,0.017518309068329196
1313.8928376214697,0.012514006171977225,0.007553682511942308,0.004960323660034917
1336.5809938271923,0.026539665669217068,0.00010049421438012085,0.026439171454836947
1349.146632851199,0.026418608861216615,1.5487789455394705e-05,0.02640312107176122
1350.556511512687,0.021772415993565344,0.008172048098894451,0.013600367894670892
1374.8949021501269,0.015019427551867432,0.010252319259764725,0.0047671082921027065
1378.5651212694079,0.01097920274342559,0.005739020410349014,0.005240182333076576
1391.2863219869162,0.00950859080960077,0.0009104532702936851,0.008598137539307084
1396.6108930896114,0.0007368437302802599,1.0975760417561979e-05,0.0007258679698626979
1398.1298404425222,0.0036745780406494083,0.0002922824458965868,0.0033822955947528217
1399.090808110597,0.016331816904963634,0.0036864694476923554,0.012645347457271278
1413.1262238975653,0.004970319757820115,0.000526879716650528,0.004443440041169587
1415.3179341505142,0.0007317230943400875,0.00017466464984850088,0.0005570584444915866
1415.8757031672967,0.007019162069954481,0.00035673399239278153,0.0066624280775617
1471.315387177723,0.005957638116839242,0.00020327358099146605,0.0057543645358477755
1480.325726090485,0.05793212494039526,4.7778923350671115e-06,0.0579273470480602
1481.1469093612354,0.013980567779367712,0.00010786085424402724,0.013872706925123685
1481.5083118905884,0.03372001781598907,0.00021039356315149803,0.03350962425283757
1486.4081172309352,0.0034384391685011095,4.9479037904694633e-05,0.0033889601305964146
1487.1897430852496,0.010661398250454458,0.00037388628433505775,0.0102875119661194
1488.8765937914063,0.008067217582694986,0.0003160932336983923,0.007751124348996593
1497.158891660284,0.022656118295383953,3.3446136868986866e-05,0.022622672158514965
1498.5801156425036,0.049243383388432524,0.0007829199296437778,0.048460463458788745
1499.4022246172897,0.004569412733436709,3.9120603820534356e-05,0.0045302921296161746
1503.8988767268556,0.023585923090372544,0.011252985864926677,0.012332937225445869
1506.7940050287577,0.04913102719783151,0.018615888820762507,0.030515138377068998
1509.5825291232302,0.014101238112809052,0.0006406697613695912,0.013460568351439462
1555.200001873488,0.001152109072659901,0.0002929576287645002,0.0008591514438954009
1650.0298385373737,0.05501633975463008,0.02506562058594013,0.02995071916868995
1693.196551657568,0.17782300962374112,0.01834678147991987,0.15947622814382126
3050.633442468296,0.19753676538038054,0.17332545545034606,0.024211309930034487
3051.758167536926,0.3864828210673176,0.35031370043293925,0.036169120634378334
3052.5848204878844,0.08423682869079901,0.0531700674021,0.031066761288699007
3053.5446727443928,1.084448881491362,0.9503490364031278,0.13409984508823414
3056.0368695222587,0.8356775298290287,0.7126296418773925,0.12304788795163617
3056.8736827651423,0.3914146144542638,0.3412043435996426,0.05021027085462119
3057.5115084783592,2.35769935044502,2.3243301652553217,0.03336918518969825
3072.5283325015926,0.2724960007348716,0.010492266027663892,0.2620037347072077
3083.0780695264266,0.441812811720681,0.30411137153741086,0.13770144018327013
3114.740948963875,0.063071475476073,0.0012904524210077962,0.06178102305506521
3114.99226162202,0.0362751457792387,0.0007912872208704744,0.03548385855836823
3116.006150546215,0.057133946131881184,0.0019470664573413513,0.055186879674539835
3120.7682619370003,0.6807862040518433,0.1274382460823226,0.5533479579695207
3121.9830309756835,0.4276117788202784,0.02628001626380845,0.40133176255646996
3123.399862749267,0.6404418409050919,0.22253875007588433,0.4179030908292076
3126.3572151524145,0.16079541825229432,0.020206975331913332,0.140588442920381
3127.025935411834,0.2110791372987033,0.043936233335074196,0.16714290396362913
3128.928654249822,0.1207493360353689,4.800931922570999e-05,0.1207013267161432
3129.3231606189734,0.14654399185966063,0.004041914041570552,0.14250207781809007
3130.451442541993,0.2799804163687085,0.018519310837638112,0.2614611055310704
3131.224896274576,0.43272604490374705,0.0042834221671208435,0.4284426227366262
3182.464531740945,0.3209377020473862,0.11664255808415984,0.20429514396322637
3201.003428499743,0.14670876590495485,0.08826816930670997,0.058440596598244875
3213.012065940738,0.6366040793137984,0.43140483893550396,0.2051992403782944
