frequency_cm1,total_intensity,isotropic_intensity,anisotropic_intensity
2.0424104252867985,0.0,0.0,0.0
1.0821953698840412,0.0,0.0,0.0
7.532478922111809e-06,0.0,0.0,0.0
1.2567259507739582e-05,0.0,0.0,0.0
1.7992871420364e-05,0.0,0.0,0.0
0.29656860205162594,0.0,0.0,0.0
26.236012501733743,0.013267911936808175,1.8328531292121699e-06,0.013266079083678963
44.507657546744674,0.00760294703882714,0.00012590949050227048,0.00747703754832487
51.821360227382044,0.006469340475960822,0.0007111432949342323,0.005758197181026589
62.43382349254823,0.0010279854691549715,3.856753730131482e-05,0.0009894179318536568
82.31125576207369,0.0005066203667924634,3.972733254176235e-05,0.00046689303425070103
90.64055893561765,0.0027995909601507387,0.00044616036971789646,0.002353430590432842
134.42504318645354,0.0008622540457956672,0.00016934633466329264,0.0006929077111323745
158.31636524267284,0.0024849777155699073,0.0017488942794286677,0.0007360834361412394
187.81292222115502,0.006433109981943899,0.00022027935280689902,0.006212830629137
215.03432640486236,0.017337633827645395,0.008684691335047972,0.008652942492597425
224.2314076305401,0.005337872231714678,0.0012477846938779846,0.004090087537836694
247.96953993802768,0.0015687540419956623,1.6650679607604467e-05,0.0015521033623880577
251.68257205299446,0.003011659284862484,0.001099490217356793,0.001912169067505691
267.8506181067422,0.0019474096150094498,0.00040846417193852254,0.0015389454430709273
280.87707471534094,0.001879718057903058,0.0002585582292319908,0.0016211598286710672
285.92580664086455,0.017258142419084587,0.01389861916810703,0.003359523250977558
306.30176159624165,0.00712872191231716,0.0015152778553013824,0.005613444057015778
331.02826136822233,0.003946142753693984,0.00200993323826334,0.001936209515430644
344.75994037823125,0.004988186043863287,0.003994599023915096,0.0009935870199481907
356.74367903016173,0.0035112807457855456,7.45948458377703e-05,0.0034366858999477752
383.38119831704455,0.006240974587553083,0.004657501729285711,0.001583472858267372
414.3162607579315,0.007308303617633196,0.0025701961968765657,0.00473810742075663
429.2066675258946,0.004995439955385844,0.0002593536893416736,0.004736086266044171
464.5095480392999,0.0017523508781571702,0.00019157777991397163,0.0015607730982431986
498.69453939751594,0.006842141943664578,0.00039641075684617393,0.006445731186818404
520.7596573441305,0.01329232904247017,0.009329287793701424,0.003963041248768746
531.3443329192332,0.003972563023132628,1.033996923488385e-05,0.003962223053897744
551.2595024142857,0.03458548005693148,0.027372648338193483,0.007212831718738001
577.4729679086159,0.007823074340549603,2.2678104187004446e-06,0.007820806530130902
607.7270195838867,0.022153893471585872,0.007075731360803053,0.01507816211078282
631.4117949090985,0.02009447765675787,0.01210634100299789,0.00798813665375998
669.707826261989,0.06916222994801922,0.06034343822181003,0.008818791726209202
723.8887047309331,0.03190306445444886,0.026639753440153284,0.0052633110142955766
763.2282767149062,0.003393256212740438,0.0005671879991028581,0.00282606821363758
780.7551162030984,0.004108452020913892,0.001790871262276921,0.002317580758636971
789.6506236897764,0.12491779874975582,0.10870458819009914,0.016213210559656684
801.8490968429062,0.0026620470956602283,0.002032539993249404,0.0006295071024108241
843.3274574468388,0.0016300334531432472,0.0002126153320686473,0.0014174181210746
898.7397185512375,0.0025780812720360017,0.00029669688059149446,0.002281384391444507
934.6465395477815,0.019914573010677946,0.011675548891605575,0.008239024119072371
951.3643031291358,0.012610347773753298,0.0002975880497186195,0.012312759724034679
960.1485398765974,0.023365503086162018,2.1970857961461463e-05,0.023343532228200556
971.7981171379353,0.0006328247258469251,2.315781386100359e-06,0.0006305089444608248
1073.7420129865745,0.04817027372970712,0.04370517255014134,0.00446510117956578
1079.5007890750665,0.014009166583521533,0.009008626458718756,0.005000540124802777
1101.9309776822406,0.0061465209078900174,0.0034333932170268976,0.0027131276908631194
1107.0161284785236,0.01379331892563565,0.007035660296678991,0.006757658628956658
1112.3720829835722,0.009659059253592141,0.007480252861322638,0.0021788063922695035
1130.6401043285573,0.024317436257786203,0.01741737207428591,0.006900064183500293
1134.862611961546,0.015322525394021739,0.008336994509746086,0.006985530884275652
1172.972903748991,0.012263331304379288,0.0034408558213733995,0.008822475483005889
1174.4128246672412,0.0032849988949439557,0.0003193969172910252,0.0029656019776529304
1187.3312559788847,0.14109219966635866,0.12918524714869647,0.011906952517662186
1204.4297904722537,0.021901051495982683,0.013239293006351452,0.00866175848963123
1213.0164126568784,0.01400671545123957,0.004465861408751185,0.009540854042488386
1221.3570156000692,0.006713125439338647,0.0014399430306701638,0.005273182408668484
1271.4758208255123,0.005752590723116845,0.00044394354365420594,0.005308647179462639
1311.9348059019076,0.06695635815926942,0.04884864168038499,0.01810771647888444
1320.2901771396937,0.005964978303109177,0.002564816802179116,0.003400161500930061
1331.2368396475747,0.010328516712460442,9.273454770850184e-05,0.01023578216475194
1356.5808838671144,0.017867027165621774,0.005023722347624173,0.012843304817997602
1372.0559285773513,0.03698398927813736,0.01933512612426179,0.017648863153875573
1380.299323656023,0.07469128118576628,0.059875959658971176,0.014815321526795096
1394.550202004237,0.014777658568090421,0.006671542399508374,0.008106116168582048
1401.3340213972126,0.007165846382307957,0.0007616574979876698,0.006404188884320287
1413.0749310166477,0.0008018227985226023,4.883228068112855e-06,0.0007969395704544895
1435.7122418323488,0.009102884507807808,0.00831724684661563,0.0007856376611921773
1477.9807650382388,0.035418501722851034,0.018520589045898657,0.016897912676952377
1480.680497833163,0.0195438092053452,0.0033591845565985098,0.01618462464874669
1481.778521856171,0.017779630552894617,0.0004138030579469789,0.01736582749494764
1483.1595137610097,0.03408451506358501,0.00035567561091911533,0.033728839452665894
1489.1759059803408,0.009807625252046821,0.000576829401933438,0.009230795850113382
1493.8690201325426,0.04062014151508451,4.6176682922296147e-05,0.04057396483216221
1501.002126263429,0.08797094630178577,0.004710697880643154,0.08326024842114262
1507.4714633791323,0.026329250416777222,0.008470585490387395,0.01785866492638983
1508.5597748107102,0.011578768826828411,0.0007405145391311919,0.010838254287697219
1514.680791816611,0.019812932330682334,0.015760633010945303,0.00405229931973703
1563.902741955739,0.03674531820048005,0.03136608699148224,0.005379231208997807
1635.2926562538196,0.040630105417000996,0.013699988638861429,0.026930116778139567
1669.5286333935485,0.08111468910704325,0.00909230021918442,0.07202238888785883
1678.8616818169405,0.25014340955125747,0.010051904832573502,0.24009150471868396
3043.868656438751,0.7824955550182321,0.7414754267672339,0.04102012825099825
3055.0348262323105,0.5927272598303384,0.3840210199447043,0.2087062398856341
3059.135765505025,0.8832155690753585,0.7887464865293189,0.09446908254603958
3067.6593202189347,0.7704418476619131,0.639943876679109,0.1304979709828041
3091.1561054906942,0.6412697813043469,0.522835376727006,0.11843440457734089
3108.2730437870946,0.22560830202935664,0.0015355055807448554,0.22407279644861178
3113.781799409609,0.3073403297893917,0.13247780411872956,0.17486252567066213
3121.5034115771386,0.73244873908907,0.30801988108367995,0.4244288580053901
3131.5680222106894,0.3065688142583033,0.0003026080596805842,0.3062662061986227
3132.7957173801547,0.2540850457249441,0.03790684682724842,0.21617819889769568
3149.6147664682003,0.05108679992009649,0.008319814920557098,0.04276698499953939
3156.7284516333084,0.029652782305986593,0.0007305292209574422,0.028922253085029152
3166.7686480940565,0.6405058962796246,0.19266803473287952,0.44783786154674504
3218.0439636488327,0.32624169869577974,0.19829010600701705,0.1279515926887627
3229.9801538648744,0.16472832912865137,0.020183850600044552,0.14454447852860683
3243.388432809453,0.6703546635543679,0.5117766327553562,0.15857803079901167
3607.3680178304385,0.8572306947424159,0.6757117178922489,0.18151897685016696
3712.73910703733,0.1943111286768005,0.0034258283768071243,0.19088530029999337
