frequency_cm1,total_intensity,isotropic_intensity,anisotropic_intensity
2.3903645823066437,0.0,0.0,0.0
2.283703846908022e-05,0.0,0.0,0.0
1.9135935986923345e-05,0.0,0.0,0.0
1.7043837302513706e-05,0.0,0.0,0.0
0.9626571459580211,0.0,0.0,0.0
1.7121404428449765,0.0,0.0,0.0
21.247053674988354,0.033061732917022704,1.135414350275461e-06,0.03306059750267243
23.742614479322086,0.031930148883546346,4.05743304701595e-06,0.03192609145049933
27.479710890257138,0.00026146829837419373,8.171500325085215e-09,0.00026146012687386865
35.52690263316244,0.003220184585538189,0.0014258472295670384,0.001794337355971151
36.25000741164963,0.0032851488105189565,0.0007163052731319417,0.002568843537387015
36.79257993436628,0.003861652145203724,0.00021920503612789417,0.00364244710907583
53.42719404303496,0.03390412287497933,2.4295086050391066e-08,0.03390409857989328
54.38834078070743,0.03351553610500781,8.072336668534478e-07,0.03351472887134095
65.77497421455985,0.013043011143617512,3.365474254604869e-08,0.013042977488874966
66.60352681388146,0.014639837931043695,4.878923313108771e-07,0.014639350038712383
75.72435964935441,7.882901651029125e-05,2.4628739394315672e-09,7.882655363635182e-05
103.48138065267416,0.006000785890359528,0.0004981784204650421,0.005502607469894486
429.30369392015496,0.00017506650878423404,1.2177833692814745e-08,0.00017505433095054123
429.6110013202553,0.0001718521696838527,2.691407547326377e-07,0.00017158302892912006
429.64263000775605,0.00019511111916069835,2.126909197173153e-06,0.0001929842099635252
429.8079352144858,0.00021328955762018874,2.7421539377928257e-06,0.00021054740368239592
429.90078300634354,0.0005941866246826898,0.00011126701482647757,0.00048291960985621224
430.21052140357875,5.733882973851637e-06,6.951625664311364e-09,5.7269313481873255e-06
620.8982074229966,0.034438516931477876,0.00025775403498121504,0.03418076289649666
621.0014321048468,0.007877814812297818,1.5503106240788137e-06,0.00787626450167374
621.0592063987586,0.007902839258405799,5.482012532491414e-07,0.007902291057152549
621.2783044023174,0.014339384472942142,1.1216995725068634e-07,0.01433927230298489
621.4286088269533,0.013153554403489467,2.577659295249052e-08,0.013153528626896515
621.5423387542255,0.006425326369166238,1.3769261720984652e-09,0.006425324992240066
704.1318474000436,2.2155108583684233e-07,3.6028664849227564e-10,2.2119079918835006e-07
706.132216616141,3.7916540147695534e-05,1.8792730087649256e-07,3.7728612846819044e-05
706.3783617573976,4.723644246695463e-05,8.977009877755277e-09,4.7227465457076873e-05
713.6143811949188,0.0004964172809098075,9.813046322706293e-07,0.0004954359762775369
713.7553141247865,0.0005282212102158155,1.3522335964817292e-08,0.0005282076878798507
714.0718656221497,0.0011480777063691944,3.0475212141225997e-06,0.0011450301851550718
881.6428409565543,0.0007709669298580076,3.1161395663542907e-09,0.0007709638137184413
881.9285516305147,0.006904881792238625,4.6816683699865386e-07,0.006904413625401626
882.0964318641687,0.007380799615821002,4.224806213962223e-07,0.007380377135199606
882.4327148002405,0.007089502849717893,4.4586847784808633e-07,0.007089056981240046
882.7402745083261,0.007089928219718404,8.466828645733402e-06,0.007081461391072671
885.1411295551943,0.002020215445331137,0.0003980222681984921,0.001622193177132645
1017.8813001216647,9.44268308785597e-06,4.5067392110755355e-09,9.438176348644895e-06
1017.9988509367319,7.048471672159634e-05,3.7472799554686023e-06,6.673743676612774e-05
1018.0645639599057,6.123834716224504e-05,9.248035950156773e-06,5.199031121208827e-05
1023.4733842920393,0.001370432912626931,0.00035304808239820936,0.0010173848302287218
1023.7374975438694,0.0010359592364418712,0.00014160350139833002,0.0008943557350435412
1024.6586968196684,0.02368557543140604,0.02365874578329991,2.6829648106131893e-05
1026.3364165405992,7.950401724239159e-06,6.414941629101986e-07,7.308907561328961e-06
1028.0103525507934,6.42336325088234e-05,3.837857592666458e-07,6.384984674955676e-05
1028.0181805573493,6.48879578173531e-05,7.029047209273462e-08,6.481766734526036e-05
1028.4380264103875,2.4212372752657502e-06,8.076169253654789e-07,1.6136203499002714e-06
1032.2209239629078,0.5745962376807483,0.5744049685636178,0.00019126911713047545
1032.3482705385202,0.5377183943119819,0.5375126919937442,0.0002057023182376862
1032.4254646227635,0.0033978196936483764,0.003129014596813706,0.0002688050968346706
1033.7209992387432,0.04884046160490506,0.00014848141451288133,0.04869198019039218
1033.8239179697969,0.05260826544885703,0.0027956255137406615,0.049812639935116365
1072.72561401378,0.0006390740792818294,6.177987175078916e-05,0.0005772942075310402
1072.8101432635638,0.0001966167994910666,1.1337809045502311e-06,0.00019548301858651637
1072.8431544810603,0.0002096123968332687,1.150342849860213e-05,0.00019810896833466656
1073.128663668387,0.0005082892720112922,2.763011553105334e-06,0.0005055262604581869
1073.1985977395243,0.0005134639355471584,5.94697614520214e-07,0.0005128692379326382
1073.9313146218935,1.908229734571176e-06,2.9348225089333658e-08,1.8788815094818424e-06
1157.4065384421333,0.0012363002724382524,0.0008095696866287835,0.0004267305858094689
1157.551035986634,0.0010852301256831197,0.0004810457513449089,0.0006041843743382107
1157.7641319457578,0.0009889775246510097,2.389576054521246e-05,0.0009650817641057972
1197.4071466536218,0.028941976878397207,1.9481408265721746e-07,0.02894178206431455
1197.558791998039,0.029897784604938943,2.1413971123340863e-07,0.02989757046522771
1198.4288379473317,0.0005917069400098674,2.5486954385188557e-08,0.0005916814530554822
1202.6503675818444,0.018787628702011814,1.933011208107848e-07,0.018787435400891003
1202.6652323876317,0.019523816816859895,8.990545497403193e-06,0.01951482627136249
1205.5364195322406,0.05927637194226207,0.0010046486862687555,0.058271723255993314
1315.3444901918367,0.00019008059615571436,1.7755975845445305e-05,0.00017232462031026906
1315.4544701236805,0.0004158002740584628,8.583832753101522e-05,0.0003299619465274476
1315.7078158089175,0.003097205909203951,0.000699141427822441,0.00239806448138151
1384.774418860804,0.0002804803387509565,1.8811142428792722e-08,0.0002804615276085277
1384.873812470102,0.0002978182170313718,5.0159265386328294e-08,0.0002977680577659855
1385.2694500751556,9.85182265231676e-06,2.1355709147508904e-09,9.84968708140201e-06
1526.8824617245718,0.00011551977813656854,2.247903736555372e-06,0.00011327187440001318
1526.9355220517389,0.00014526292339427693,1.2108224802748985e-05,0.00013315469859152793
1527.1283412414682,0.0026390353225300184,2.205303037191606e-07,0.002638814792226299
1527.1794291004958,0.0026751615229994473,8.723995202244278e-09,0.002675152799004245
1527.642367673255,0.0022419100270065673,0.0015101261804848617,0.0007317838465217056
1529.2521859197227,4.704574336039429e-06,3.113067341501284e-08,4.673443662624417e-06
1670.711568644972,0.03230853810191182,0.00037091859673192004,0.0319376195051799
1670.8053192868806,0.033437896317064404,0.0003672227929748122,0.03307067352408959
1671.008819103223,0.083168261845124,2.5005695261428435e-05,0.08314325614986258
1671.0496621127027,0.084478147129187,1.7048262209928437e-07,0.0844779766465649
1671.3382597151146,0.14345718038414665,0.011649530547083238,0.13180764983706342
1671.6855010310378,0.0004988278620445194,3.0013543418557774e-05,0.0004688143186259617
3192.558739919644,0.0087439260636929,1.2216117047500472e-06,0.00874270445198815
3192.6166745792048,0.010013698553200608,3.653726288060304e-05,0.009977161290320006
3193.7731465861434,0.0002252831150944189,1.990642914951631e-07,0.00022508405080292373
3197.8860714716825,0.20547257315878611,0.0007904791919682611,0.20468209396681786
3197.9829619737784,0.19375376127243146,4.460142347389368e-05,0.19370915984895756
3198.380106205821,1.2681100181111606,0.029260911226548742,1.238849106884612
3201.1037655107007,0.5920790451887579,0.0013407662055227778,0.590738278983235
3201.2866566148045,0.5723141305468551,0.00019444078444022506,0.5721196897624149
3202.398842588664,0.010728130816230851,6.222660361463376e-05,0.010665904212616217
3213.464027749618,0.05384981165716502,0.000101679645327359,0.05374813201183766
3213.49195367426,0.049240205811674494,1.6517817953676665e-05,0.049223687993720816
3214.097158994097,5.2176484622539374e-05,1.7256909710149158e-06,5.045079365152446e-05
3215.8425803341456,0.0019684436408341616,0.0005029818893119229,0.0014654617515222387
3215.9979899525033,0.0018350283563571112,5.142025376653427e-05,0.001783608102590577
3216.4551500705043,0.01796708086231464,0.016642569660959346,0.0013245112013552936
3230.154978773028,4.271174234315703,4.186212415182399,0.08496181913330371
3230.264744871285,0.5777895958296458,0.10675486664798292,0.4710347291816629
3230.322536038169,0.6006886026242175,0.11864549329807728,0.48204310932614025
