frequency_cm1,total_intensity,isotropic_intensity,anisotropic_intensity
1.491746963273688,0.0,0.0,0.0
0.906726439053521,0.0,0.0,0.0
1.931305691713559e-05,0.0,0.0,0.0
2.1041370049029705e-05,0.0,0.0,0.0
2.675203245771017e-05,0.0,0.0,0.0
1.2398267853558844,0.0,0.0,0.0
22.48552655813679,0.03330176632401756,5.169720552098475e-09,0.033301761154297005
23.909511506885245,0.03174183769396512,1.0725718224786509e-05,0.031731111975740335
28.15721004528048,0.00025599217898261207,1.5465585515253227e-05,0.00024052659346735885
36.09443025360211,0.003853906184695285,8.446679911897406e-06,0.0038454595047833877
37.006662986907365,0.002681533212976999,0.0022583553108417023,0.0004231779021352968
37.45346010827379,0.004210817294981283,0.00011437294003333205,0.004096444354947951
53.430789821450794,0.03364344959881648,1.0990475686387338e-07,0.03364333969405962
54.80869682215096,0.033765874378882364,1.153009967004417e-06,0.03376472136891536
65.61249835329994,0.013425374551343315,9.64853824680895e-07,0.013424409697518635
67.00242904033111,0.014031027756441078,2.806221498752981e-10,0.014031027475818927
75.75496830409043,9.027746773403727e-05,3.4336990294131446e-06,8.684376870462412e-05
103.34304472144461,0.005941747657728137,0.00046275152634371575,0.0054789961313844214
429.0329828317794,0.00019068128691054873,7.87960155324945e-07,0.0001898933267552238
429.49861768198735,0.0002234195608297532,8.14613268131145e-06,0.00021527342814844176
429.79849819462055,0.00035498629534775337,7.145838182616931e-05,0.00028352791352158406
429.9044866320513,0.000246688268786671,2.3033391150627345e-05,0.00022365487763604362
430.0129804448719,0.0001815313072855921,9.482397720378498e-07,0.00018058306751355424
430.3712527600591,0.00016051485722520274,2.1184840794913655e-05,0.00013933001643028908
620.8875227256377,0.034033114507710634,0.00025936635996682823,0.0337737481477438
621.011613304536,0.0084486395975301,3.1918032496941968e-06,0.008445447794280405
621.053225937742,0.007941594210246984,8.756285434121488e-07,0.007940718581703572
621.265416867093,0.01416681773842054,6.314937480159592e-10,0.014166817106926792
621.4968916337118,0.012214788310136034,8.536645716738086e-10,0.012214787456471463
621.6106795288099,0.0074253837592982794,1.7587964626301585e-07,0.007425207879652017
704.0608772348703,1.555443301142605e-06,5.135511945666024e-07,1.0418921065760026e-06
706.1428838256043,4.14341084519e-05,1.0423795984131103e-08,4.1423684655915864e-05
706.4569883429729,4.4253167043306174e-05,3.3441960707671096e-08,4.42197250825985e-05
713.5572422715146,0.0005459523583164822,7.348998321992517e-07,0.000545217458484283
713.8728656711712,0.0005584739489129065,8.500805296255275e-07,0.0005576238683832809
714.1355550444497,0.0011061940564973728,4.880320789434465e-06,0.0011013137357079384
881.5874049928516,0.00038474009715529965,1.0211414778823327e-05,0.00037452868237647634
881.6421461827752,0.007368142551928981,5.19899007427791e-06,0.007362943561854703
881.9987601988956,0.007118276385077958,2.744536878233699e-07,0.007118001931390135
882.4352920973089,0.007261469448343284,1.1336583856057867e-05,0.007250132864487226
883.0548068553852,0.007071590811859222,1.5152218184279954e-06,0.007070075590040794
885.2662658300183,0.002018844724288942,0.0004023529106096504,0.0016164918136792915
1017.8430134378059,1.9489660350218103e-05,4.813811231138579e-07,1.9008279227104246e-05
1017.9661986398343,6.679546235605966e-05,6.052743066393277e-06,6.0742719289666385e-05
1018.0458205787462,5.95863045876426e-05,1.624890173242811e-06,5.7961414414399786e-05
1023.3963231116884,0.0014637350275233392,0.0003996927735995359,0.0010640422539238033
1023.6971187978684,0.00176701570631217,0.0009150714009590552,0.0008519443053531147
1024.5551655834565,0.023764863411089677,0.023733493771396122,3.1369639693556634e-05
1026.4852859115383,0.00019326037317814564,0.00018519151146193012,8.068861716215529e-06
1028.0092416542418,6.468839345099992e-05,1.5510308841275308e-06,6.313736256687239e-05
1028.045698218216,9.629574907719516e-05,3.134500862092924e-05,6.495074045626592e-05
1028.4643333446938,0.0004520523757731801,0.000449881121644463,2.1712541287170772e-06
1032.190362272699,0.024720365523641836,0.024324145393934637,0.0003962201297071984
1032.268838446926,1.0807018844862053,1.080487687990566,0.00021419649563923315
1032.5974491309737,0.0049742362621813824,0.0043683212032856154,0.0006059150588957674
1033.73370240755,0.05215055612119282,0.002576528224201899,0.04957402789699092
1033.818768975329,0.05185083695702802,0.0036557361670403765,0.04819510078998764
1072.7313678822527,0.0005469906075301745,3.268176534509712e-05,0.0005143088421850774
1072.7767343426556,0.00028454776195365546,8.584547073554363e-06,0.00027596321488010107
1072.820007917229,0.00022909592759756879,7.308047325763902e-06,0.0002217878802718049
1073.1658834917623,0.00044933527368609303,1.1467107145867993e-08,0.00044932380657894714
1073.3476392255272,0.0004782561276159705,3.264574414357372e-07,0.0004779296701745348
1074.0063979390075,4.866542917586078e-05,2.1129757257843983e-05,2.7535671918016797e-05
1157.4534653596522,0.001274674412017859,0.0010191265366115896,0.00025554787540626946
1157.6678308337164,0.0010616038347079986,0.00030682952230912526,0.0007547743123988733
1157.769800398772,0.0009806115621464146,8.318468968698568e-08,0.0009805283774567276
1197.4102413388475,0.02891487105932109,6.82660214061609e-07,0.02891418839910703
1197.6005290848432,0.029840484939471328,1.650173546336262e-07,0.029840319922116693
1198.4625210652457,0.0009808030242381748,7.273030639460873e-06,0.0009735299935987138
1202.691483673812,0.019258656744534666,1.6108036233362797e-06,0.01925704594091133
1202.8543245122855,0.01891424492862667,3.4797060107680436e-06,0.0189107652226159
1205.667795368734,0.05886340606519565,0.0009923958294672226,0.05787101023572842
1315.2798770503666,0.00011420408141226234,2.206363437662738e-06,0.0001119977179745996
1315.386957297973,0.0008804677505738841,0.0001758930139623516,0.0007045747366115325
1315.6862979975936,0.0027372823917420357,0.0006326911057344779,0.0021045912860075578
1384.7929573695585,0.0002868370695080285,2.5250771279970235e-09,0.00028683454443090045
1384.911254154118,0.0002871687020412973,4.1440702890538146e-08,0.0002871272613384068
1385.3216136784172,2.656901484855338e-05,1.1479130781020366e-08,2.655753571777236e-05
1526.7711758486537,0.000785885681556849,2.85264250979012e-06,0.0007830330390470589
1526.8217903070235,0.000517966218523677,6.908706292375752e-06,0.0005110575122313013
1527.2225674967885,0.002254339574412782,2.931793752160719e-05,0.0022250216368911746
1527.3163230549278,0.001995770152398611,1.9874376061791614e-05,0.0019758957763368196
1527.6623723598757,0.002272653442920994,0.0014702669107090338,0.0008023865322119601
1529.2947770930507,2.2564721217161072e-05,1.0703759964132164e-05,1.1860961253028908e-05
1670.6703592687245,0.03222899852312604,0.00022906851551112272,0.03199993000761491
1670.7528233030398,0.038236575397086636,0.000955582983303855,0.037280992413782785
1670.965590691437,0.08147263534398835,6.087817444086235e-05,0.08141175716954749
1671.0891165940861,0.08500481940505375,2.507322140725313e-05,0.0849797461836465
1671.2868680663516,0.13488603300765298,0.01074794991465729,0.12413808309299568
1671.7009248713246,0.005368831391718196,0.0003269534963630984,0.0050418778953550975
3192.562870683364,0.010274984134595634,1.2787062320177945e-05,0.010262197072275455
3192.6434383120595,0.010947378710237685,1.5409728717251433e-06,0.01094583773736596
3193.768630525781,0.00042487118795075197,7.759030621023914e-05,0.00034728088174051285
3197.856610082302,0.2229417317183992,0.0009283329071600026,0.22201339881123922
3198.0294816374053,0.23485513289932636,0.0013061176094127929,0.23354901528991356
3198.4252843831573,1.2136931873653638,0.028338953677535916,1.185354233687828
3201.207425308321,0.5888659174691223,0.00030348695542251606,0.5885624305136998
3201.2358306532615,0.576355598351169,8.732757744279226e-05,0.5762682707737262
3202.422746595547,0.004934796450354179,0.00022153630848102305,0.004713260141873156
3213.383099887497,0.04949537385064086,2.51901671058319e-05,0.04947018368353503
3213.5840917448727,0.04710370170052586,8.885981126484414e-06,0.04709481571939937
3214.169225933693,0.002012124434488877,4.7868159777415355e-05,0.0019642562747114616
3215.893187832137,0.0023620566374170956,0.0003104311973045382,0.0020516254401125576
3215.941012633114,0.002077672542294023,4.050303460010407e-05,0.002037169507693919
3216.432459881209,0.022605539480127473,0.021353877782516854,0.0012516616976106214
3230.115306356277,3.2041678834691534,3.011712864904,0.19245501856515326
3230.284400181534,1.442115183148526,1.0477644459604782,0.39435073718804775
3230.360300464008,0.7918171843268031,0.3428657921050271,0.448951392221776
