frequency_cm1,total_intensity,isotropic_intensity,anisotropic_intensity
8.96541771087347,0.013458531432844052,1.3115893421120427e-07,0.01345840027390984
1.0724118498245732,0.0,0.0,0.0
1.6535184137082223e-05,0.0,0.0,0.0
1.4562017446515092e-05,0.0,0.0,0.0
2.8390636738250743e-05,0.0,0.0,0.0
0.4204664211810758,0.0,0.0,0.0
1.3233158004613732,0.0,0.0,0.0
9.16070610857029,0.0010304418525053968,1.2697982013227511e-06,0.0010291720543040741
12.600511154985213,0.010610625556555101,1.276189010279778e-07,0.010610497937654072
22.016011823708762,0.024405600757958387,2.3990285204760113e-06,0.024403201729437912
24.071956979352652,0.013613895478431767,2.8361911570092652e-05,0.013585533566861674
26.898929807755568,0.010462595099096658,8.21043479506048e-08,0.010462512994748707
37.549280275069464,0.004199019056245034,1.9736971743793673e-05,0.0041792820845012405
38.666037801629955,0.03283932197230449,3.347892388274378e-07,0.03283898718306567
44.64500276311313,0.0003823507338784312,2.847326511692139e-05,0.0003538774687615098
53.08035769413496,0.0018103636813529833,0.00022560870397377326,0.00158475497737921
65.60439155762025,0.020004155157355416,7.463366239637059e-06,0.019996691791115778
72.05666955752756,0.008950061091929943,0.000614752990459083,0.00833530810147086
85.48604515291971,0.00022353003365097927,2.2067261057116605e-09,0.00022352782692487355
85.98212712715788,0.00031941865260228647,5.827142254360962e-07,0.00031883593837685035
92.69842687485809,0.000584509555036729,3.808835750418073e-08,0.0005844714666792248
257.0784418330162,0.013786417672450405,1.9379154586429904e-07,0.01378622388090454
258.93394600750025,0.005084846428775739,1.7647371178103887e-07,0.0050846699550639585
259.3510208459189,0.002279050320284616,4.977843282936539e-10,0.002279049822500288
369.26423060934275,5.6302504592539055e-05,2.2918871192566454e-07,5.607331588061339e-05
370.01491955681945,0.00011476761042261051,5.016678726085071e-07,0.000114265942550002
371.66365271313504,7.562889759602782e-05,2.7841809008673414e-07,7.535047950594109e-05
419.7560687482046,0.00045900800557232576,3.0899655960621813e-06,0.0004559180399762636
421.1966307157031,0.0014322146582766478,0.0006759596984512257,0.000756254959825422
423.25293050289343,0.00020213678643219267,6.70002986766646e-05,0.00013513648775552808
449.24571411252145,0.02713238353806319,0.000969671996688191,0.026162711541375
450.20491799867443,0.08496968313866972,0.060995280218080226,0.023974402920589496
452.73661973544665,0.07486893512730425,0.04476249730185266,0.030106437825451596
456.89484806971643,0.005167560568813735,0.0006817779051236049,0.0044857826636901296
460.8814848085734,0.006769933582991496,0.004401885094046308,0.0023680484889451875
464.09586380075416,0.00308773192296305,0.0015322885107637446,0.0015554434121993054
544.5421096124747,0.0008110210444240596,3.741686342113133e-06,0.0008072793580819464
547.4137347527665,0.0007224840848760492,8.650985980224374e-08,0.000722397575016247
551.8979070696333,0.0011111891702963892,1.4702612989165419e-06,0.0011097189089974728
596.0506005891542,0.0015260121505457904,0.00053793435983558,0.0009880777907102106
598.5693736149891,0.0016968941907335457,0.0003380428089053191,0.0013588513818282265
599.3766821524484,0.0065174336922354924,0.0002298818699331302,0.006287551822302362
760.6528600799801,0.0017636513968190938,0.0012636258338495857,0.000500025562969508
761.6011786667265,0.0004962427725854714,0.0002427537111390806,0.0002534890614463908
763.2273488774023,0.0009356105120693584,3.627510593520404e-05,0.0008993354061341543
772.3427789121821,0.03209232034159374,0.019143816453662484,0.012948503887931258
774.1333826909508,0.08182464156463508,0.000383650423155207,0.08144099114147987
775.7278290841026,0.2473975252376159,0.20305521173284255,0.04434231350477335
790.9137968872345,0.01374779392497521,4.348597261004089e-06,0.013743445327714206
791.0475412535675,0.004708015838118975,5.603385374584792e-06,0.00470241245274439
791.2498274102079,0.007113709450136804,2.332501499208983e-08,0.0071136861251218115
828.5829308352968,0.004225433139857137,2.3392915410777825e-06,0.00422309384831606
830.3503438647334,0.0018171059224447908,1.4134498195457888e-07,0.0018169645774628361
834.7282179465508,0.001622166072635249,4.418139873543889e-06,0.001617747932761705
919.646001703533,0.00016174721636817398,2.596978924339784e-06,0.0001591502374438342
922.4040619590437,1.9400455896891643e-05,1.8271168419686617e-07,1.9217744212694775e-05
925.627407307637,0.0001597303210754282,1.9014222251156852e-06,0.0001578288988503125
939.9062252618851,0.0017948355761898752,0.00021513060081621352,0.0015797049753736615
944.5526890298165,0.00045969943869697343,5.51619847017548e-05,0.00040453745399521865
948.2073726147031,0.0008704912470270695,8.938135714640802e-05,0.0007811098898806614
1003.2219858290791,0.013648056162323811,2.4319056680309324e-08,0.013648031843267131
1003.6327001203485,0.006522967190459883,5.387960592253094e-08,0.006522913310853961
1006.013885424726,0.007780493530555946,2.504060483596748e-08,0.00778046848995111
1016.6413665070178,0.003899880988454629,1.6037147880303757e-06,0.003898277273666599
1019.092941696453,0.001696985313937857,1.3207570588154442e-05,0.0016837777433497026
1022.9598077003735,0.003822026311917965,5.894412880502573e-08,0.00382196736778916
1076.2884643438676,0.008258799409462959,0.004065457484363689,0.00419334192509927
1080.5256632130438,0.00698103542122866,0.0029799299202876704,0.004001105500940989
1085.804675731652,0.005369754822561807,0.004293105503151462,0.0010766493194103454
1145.9746119710533,0.23129454357186735,0.15783643259417457,0.0734581109776928
1149.4320596987482,0.008387042991722203,0.0003174375242707162,0.008069605467451488
1155.9423878656103,0.47133827038715553,0.13264772150924786,0.33869054887790767
1224.717068071488,0.009540158711252258,0.0011299942476149106,0.008410164463637348
1228.7990829417286,0.009504542139994313,0.0005008405398058432,0.00900370160018847
1232.4397276927612,0.011446788296658324,0.0001042019216920044,0.01134258637496632
1314.723940908973,0.0018667849326303128,0.0013051076386505016,0.0005616772939798112
1315.585784027518,0.0020885404612930574,0.0011184205304845618,0.0009701199308084956
1320.481862212236,0.00023460291534677785,9.925103346951369e-05,0.00013535188187726417
1381.1309108594007,0.0013545553258245686,0.0009926153864227697,0.000361939939401799
1384.3515708005045,0.0037168914901836193,0.00025364348451057024,0.003463248005673049
1390.1111547080952,0.013148678632386977,0.0037408524693256172,0.009407826163061359
1423.058398902218,0.02222662143115827,0.0020321670225085515,0.02019445440864972
1424.113512164334,0.13760595187463767,0.0004893880782854562,0.1371165637963522
1430.66832977888,0.18524672707323928,0.009502805898963261,0.175743921174276
1713.0639010439772,0.009210063385378131,0.0030133380551279447,0.006196725330250187
1713.4638062632353,0.0031963968285873634,7.015872096714798e-05,0.0031262381076202156
1715.1807971571316,0.0015515181346062775,0.0014757639419738487,7.575419263242875e-05
1727.9286071362292,0.0792553457198674,0.07764745092744436,0.0016078947924230466
1728.3060220607445,0.004493028353019207,0.0012762874661638272,0.0032167408868553795
1729.3650031490688,0.004495306388982323,0.0025012039949776823,0.0019941023940046407
1782.3915387913858,1.5142215261001737,0.9475344175095619,0.5666871085906119
1787.323930604652,0.003472881344494045,0.0024721609665807782,0.0010007203779132665
1787.5255779445204,0.04315510915366387,5.630970185617792e-06,0.04314947818347825
1796.6905623347113,2.266096218564612,1.5779770883738564,0.6881191301907553
1798.1135616409742,2.7679057737516906,0.8520371752502555,1.915868598501435
1801.570554383915,0.471686997770515,0.31332886715727404,0.15835813061324094
3216.0539712073605,0.6523488499751325,0.015237234168899388,0.6371116158062331
3218.86786728189,0.30202221208723234,0.006901133031890938,0.2951210790553414
3219.7272703444705,0.626014537029001,0.030040409571889533,0.5959741274571114
3220.480913138884,0.05998917482196234,0.027359472339052025,0.03262970248291031
3223.26165633274,0.0872704627857233,0.0005906439542588309,0.08667981883146447
3226.429524104571,0.07125655612384388,0.024455064744865817,0.046801491378978065
3237.737616379748,0.279478937722995,0.22535590010470288,0.054123037618292104
3239.021270012889,0.09125092182340186,0.05318540291581252,0.03806551890758934
3239.3409993856594,0.913112454742753,0.7296301564853344,0.18348229825741869
3240.648881244331,0.028002771990840492,0.024809230843148802,0.003193541147691689
3241.7664438876095,2.161824876852693,1.5860468830637728,0.57577799378892
3244.147829923015,1.8194851766652993,1.4449460154011005,0.3745391612641988
