frequency_cm1,total_intensity,isotropic_intensity,anisotropic_intensity
2.029934505826416,0.0,0.0,0.0
1.0571617142634913,0.0,0.0,0.0
3.0976920587237344e-05,0.0,0.0,0.0
1.3967299641401544e-05,0.0,0.0,0.0
1.3546016406788431e-05,0.0,0.0,0.0
1.074598595214923,0.0,0.0,0.0
20.95271504338267,0.013366706229855424,0.00012019478344239445,0.013246511446413029
27.694654407677785,0.00943446739428658,0.0003253661868901708,0.009109101207396409
30.819211375218146,0.002870491132639859,1.921734518715533e-05,0.0028512737874527034
44.54791216845323,0.005089000715165421,4.058793738817284e-05,0.0050484127777772475
51.26376631740353,0.005143882401652738,1.154033621700647e-07,0.0051437669982905675
59.14681268603491,0.005964243579459068,6.953645067567141e-07,0.005963548214952311
70.25833720580547,0.014494830650747272,0.0012542690001533527,0.013240561650593919
74.0389959100292,0.005835099841616658,0.00047307938476833086,0.005362020456848327
80.38292862799851,0.007812143017269622,1.685436487776789e-05,0.007795288652391854
86.77288009973911,0.014836592749175053,8.969660007247185e-05,0.014746896149102582
103.62361795109805,0.0060272281381225585,0.00012481410461794858,0.00590241403350461
127.60223844411833,0.004554697515869344,5.788415881576865e-07,0.004554118674281186
228.38858571274596,0.009530232033782542,9.849370777514995e-06,0.009520382663005027
235.23339484802318,0.0018009184796254065,0.0002734465332706735,0.0015274719463547332
236.44217421595488,0.008437707723337502,2.5021323444642386e-06,0.008435205590993037
241.04346499981065,0.0068625217450449675,3.3178782544139473e-06,0.006859203866790554
246.52820064105725,0.008826416330412805,9.013600225488417e-06,0.008817402730187317
255.9893852820601,0.0024486978906074954,0.0003333607739823949,0.0021153371166251003
472.90090198124125,0.0008763117663726538,0.0004677083846888023,0.0004086033816838514
473.8137998580723,0.0005393645954181365,0.0003701451701275448,0.00016921942529059172
475.0223631324655,0.0011885044758837685,0.0003819038667725274,0.000806600609111241
589.7189031895722,0.01007158721254472,8.466450743203431e-05,0.009986922705112686
591.91478026905,0.010712281964345993,0.00021658199556899913,0.010495699968776993
595.6923297812774,0.0023232467629179074,6.74784289793004e-07,0.0023225719786281146
622.0593115508871,0.00043265744282909444,7.944917361922364e-05,0.0003532082692098708
624.1965121405079,0.0006414216872865276,1.0797983110177539e-05,0.00063062370417635
625.1564130421099,0.0006588973528327687,9.615095619682758e-07,0.0006579358432708004
728.0163827201773,0.08352893759286387,0.04075404473937057,0.0427748928534933
728.9941421334015,0.020016093872309713,0.007560934537293901,0.012455159335015812
729.6651112349838,0.006523753414351554,0.00036092427363272926,0.0061628291407188245
763.1519291333036,0.002791353810506301,0.0017086181765476052,0.0010827356339586957
766.2718758477436,0.0029506702875375657,0.0012326318089714444,0.0017180384785661213
768.2473610652168,0.005120334806333094,7.163985088152948e-05,0.0050486949554515645
777.5847104445487,0.007512305407061067,2.386353060009776e-06,0.0075099190540010565
779.4278482537362,0.013427467564080088,0.0001217797978283934,0.013305687766251696
780.723915968589,0.009796353185360953,5.205628975828642e-08,0.009796301129071195
798.9720402986479,0.014273561513127425,0.0007402604444210563,0.013533301068706368
805.6473818319691,0.007101921020720343,0.000632393864216229,0.006469527156504114
805.8946635696971,0.018520483737649848,3.130211955104231e-05,0.018489181618098805
813.5126708518239,0.01403763573755908,0.0008938516960591771,0.013143784041499903
844.3359059334049,0.0131039776844886,0.00303612582149711,0.01006785186299149
849.5571918340111,0.017314362321127357,0.0003075631954811461,0.01700679912564621
878.10205813649,0.0296590380584172,0.017422469792533816,0.012236568265883385
882.4513251361518,0.018554795875756598,0.008291198498721862,0.010263597377034736
888.396920307758,0.020257054993671322,0.008510550674186051,0.011746504319485273
985.8082039000254,0.004795489537020806,0.0009356508274517778,0.003859838709569028
991.0311903688687,0.015350201267234801,0.006739378987722014,0.008610822279512787
994.4133987287985,0.03711393654126472,0.03372785704297535,0.003386079498289369
1029.0731686295746,0.09223389781577652,0.07726059902541296,0.014973298790363557
1031.7649044615553,0.12870128102148146,0.11394404432284515,0.014757236698636307
1034.160087965831,0.05072587626911828,0.03772172192153498,0.0130041543475833
1039.6607967931616,0.0028354242405520588,0.0021684507747074537,0.0006669734658446049
1043.0492650932092,0.0006213189360883092,0.0003577409324053891,0.0002635780036829201
1045.1712460306817,0.00036232318403111766,6.199741901515613e-05,0.00030032576501596154
1071.8962984795796,0.004661397329184122,0.004226767804962334,0.0004346295242217881
1072.92575545276,0.002710797958121225,0.0015382555956670143,0.001172542362454211
1073.9049626479518,0.0021203560739934428,0.0013782315215499087,0.0007421245524435342
1087.567659841134,0.017518770477128513,4.5717853472124065e-06,0.0175141986917813
1091.32270864665,0.01433496866119831,0.0006265738427096253,0.013708394818488684
1092.3747917203518,0.016173439512295298,0.0011355801944874602,0.015037859317807836
1117.1297452549757,0.0008316522460800917,0.00022888802321492638,0.0006027642228651653
1118.829795487872,0.006564366023773437,0.00013010474000979606,0.00643426128376364
1121.9579104098902,0.012129433717616617,0.0001493710028578874,0.01198006271475873
1191.6025472443914,0.012460928049276856,0.00023050860529178797,0.012230419443985069
1193.6777439555215,0.002649463712534477,0.0001007448600606475,0.0025487188524738295
1193.7506121236393,0.017791258454160783,2.044885056089002e-06,0.017789213569104692
1214.2112065001163,0.023529218460141943,0.000923433532543497,0.022605784927598446
1215.1927770267152,0.029459108928752475,0.00020008470613288416,0.02925902422261959
1217.3361435525587,0.011437646031435633,0.0020553581352035603,0.009382287896232073
1267.1179842276524,0.0031918686085351164,0.001151220825368038,0.0020406477831670785
1267.660186485056,0.0011199760728827363,3.253971761325669e-05,0.0010874363552694796
1268.4222268014994,0.0019248834989018047,0.00037822754473498945,0.0015466559541668153
1283.735772497573,0.02072220099717506,6.0186882388973524e-05,0.020662014114786086
1287.5591340627627,0.009786862056376392,6.301790292787254e-05,0.009723844153448518
1288.0850447197445,0.029721702823718568,8.711635262696887e-05,0.0296345864710916
1291.9991940734935,0.025107520622379864,9.585865608778399e-08,0.025107424763723775
1295.020901675566,0.019856864890458042,0.0052131889312363126,0.014643675959221728
1298.678565009664,0.017337425160298448,0.0031039768022446826,0.014233448358053766
1409.9391961684028,0.014192114826888877,0.0034202266963548073,0.01077188813053407
1410.9718194800498,0.014247776419903654,0.0062236802690982815,0.008024096150805373
1414.0405648158996,0.027528418093725,0.017739004631443997,0.009789413462281
1460.0941598492882,0.0312386383799097,6.84578690917015e-05,0.031170180510817998
1464.5786459436588,0.03153837711085684,0.00012910854158854797,0.03140926856926829
1469.0539748916833,0.0095191710152985,0.0014640742201199447,0.008055096795178556
1481.8535497179607,0.02399625296285394,0.005690288725377145,0.018305964237476796
1487.251656854348,0.018795859526684937,0.0025227034941900806,0.016273156032494858
1494.5819912606662,0.05667893879009123,0.02257837393626778,0.03410056485382345
1646.2561312474947,0.15766993746144414,0.12800325927111778,0.029666678190326364
1646.8321452351684,0.15591003298182912,0.13320669990896786,0.022703333072861254
1650.2496020761207,0.1353764011827096,0.09629669084706313,0.03907971033564646
1698.200672469638,0.048626273537536936,1.0355661963384541e-06,0.0486252379713406
1701.7530156193407,0.03943140801143649,0.0004923121040027293,0.03893909590743376
1707.1604364342486,0.038812246307067075,0.0008978689532568437,0.03791437735381023
3096.1307993289606,0.525310616514823,0.4613959476310401,0.0639146688837829
3098.708699245597,0.7658706777472748,0.6338086176282448,0.13206206011903004
3099.3964521570283,1.063017435233008,0.9741811725500432,0.08883626268296466
3102.9467408049404,0.062341862686554526,0.000809158808956123,0.061532703877598405
3105.568534675933,1.7067492121582095,1.5503756013998067,0.1563736107584028
3123.1791980835023,0.6516968407394068,0.569874825130866,0.08182201560854085
3134.6272665748793,0.2625803639834928,0.01032148885995126,0.25225887512354156
3136.3157690727717,0.30238167907664,0.005535643801787543,0.2968460352748524
3138.26108917439,0.28723087883239246,0.017101392587615304,0.2701294862447772
3142.4045000808364,0.5462570802182378,0.00508059741813546,0.5411764828001023
3145.865384569367,0.12792248907032583,0.0037878424754658013,0.12413464659486004
3163.6426928103688,0.2699842902879398,0.06765992254786675,0.20232436774007306
3253.7282701368836,0.28611652552901223,0.1544304330444103,0.13168609248460195
3262.472391087092,0.6667120090731724,0.2523859187619625,0.41432609031121
3265.357192333089,0.3239557742162378,0.08321930037047355,0.24073647384576424
3268.8558581672505,0.8065114841398009,0.46788837057980975,0.33862311355999114
3271.295635557429,0.4917035008009889,0.17979416723925445,0.31190933356173445
3273.3209388630107,0.6050456631531735,0.4794435625547551,0.1256021005984184
