frequency_cm1,total_intensity,isotropic_intensity,anisotropic_intensity
11.983471937429249,0.03034720903795125,1.4982109788878873e-05,0.03033222692816237
0.9015846374548663,0.0,0.0,0.0
2.3238470744637844e-05,0.0,0.0,0.0
2.1232657336980623e-05,0.0,0.0,0.0
9.912959539590854e-06,0.0,0.0,0.0
1.190480448019414,0.0,0.0,0.0
2.5677862740293866,0.0,0.0,0.0
8.070800736165754,0.014112931912232445,1.0395210902490633e-05,0.014102536701329955
21.899297007771512,0.006120456661422675,5.403071794286934e-05,0.006066425943479806
23.63133666967535,0.040561017377635046,1.2010469188760018e-05,0.04054900690844629
38.658179556794,0.031126839966783684,0.0018506272861364885,0.029276212680647194
39.78076264227384,0.008750541943005253,9.78303662215125e-06,0.008740758906383102
43.327178101162,0.0008033576115106595,2.9502295062771465e-06,0.0008004073820043823
52.24381702469527,0.001974687191124924,1.1813702299346248e-05,0.001962873488825578
61.198573760671316,0.0013510997628145489,0.000357985912836497,0.0009931138499780518
67.9397057992594,0.024687850820231342,2.688349205750854e-06,0.02468516247102559
69.41996481707508,0.015706950693070452,2.356472986493758e-06,0.01570459422008396
80.16398625033976,0.00556122373215108,1.4234455157129435e-07,0.005561081387599509
411.2007401480555,0.00017604642733311411,8.111267596636748e-07,0.00017523530057345045
411.7309541093365,0.00012824637209339453,5.197769110523561e-05,7.626868098815893e-05
412.3791217936022,0.0001127141599828822,2.1819058927300575e-07,0.0001124959693936092
413.8490839697628,0.00011157427030361521,4.5202497750474315e-06,0.00010705402052856777
415.6061755097161,0.00018218568106474298,4.534611342214569e-06,0.00017765106972252842
416.5131000504517,0.0004021252984156779,5.6292594022025725e-06,0.0003964960390134753
616.4669179476572,0.015992886314601818,2.385922948552828e-06,0.015990500391653267
616.4732178669942,0.014039380862654464,6.816663974151229e-08,0.014039312696014723
616.709820159349,0.014606671295190799,1.403585639053207e-05,0.014592635438800267
617.4664815817283,0.009465728841803758,1.0449219593400628e-08,0.009465718392584165
617.4852108581679,0.01907016128214228,1.2178541674729948e-07,0.019070039496725533
618.239238623348,0.014453208848103955,1.967588150868681e-05,0.014433532966595268
694.1214430896434,0.0003153571597771623,7.292496738102878e-05,0.00024243219239613353
695.4969172979878,0.0004284563983219641,7.748462392122701e-05,0.00035097177440073706
697.1541590737512,0.002075729003198055,0.0011893275388060395,0.0008864014643920153
726.0520019850594,2.686238590237022e-05,4.866433586137129e-07,2.6375742543756508e-05
726.6156657352361,2.7944408714781927e-05,2.0465746747947497e-06,2.5897834039987176e-05
727.4889435473476,1.9128416656204473e-05,9.232727619343863e-10,1.912749338344254e-05
876.0899941828501,0.007644129889787607,7.409566036936018e-05,0.007570034229418246
877.5039372605854,0.01141415833258998,1.3443954866313014e-06,0.011412813937103349
878.900170554303,0.004250390314363539,6.686190534857764e-05,0.004183528409014961
879.0390123688537,0.004623444861469802,5.81050075381063e-06,0.004617634360715991
882.0388231766817,0.0029286891476820575,1.0327696684461463e-05,0.002918361450997596
882.44705229422,0.0019175921362900627,6.372599279051998e-05,0.0018538661434995428
1009.4730799101328,0.00014693117595459515,1.3641186138560512e-07,0.00014679476409320955
1010.1407907238631,0.00011468821462262135,1.6237231505100305e-07,0.00011452584230757035
1010.7899444029684,0.0005782185697938931,0.00037571108924310133,0.00020250748055079178
1012.0154013294148,5.590517688215521e-05,4.155910147922399e-06,5.1749266734232814e-05
1012.8681603191756,0.0001454640666387942,0.00010317262071937935,4.229144591941484e-05
1013.674270919198,0.0024175187092199913,0.001715900209828003,0.000701618499391988
1020.8097052612095,0.00034813535212844355,7.726839380405454e-05,0.000270866958324389
1021.2172873639433,0.0007301747991689016,0.0006875631918748266,4.261160729407502e-05
1021.529055733761,1.0362703038208372e-05,1.700130782047465e-07,1.0192689960003625e-05
1030.8916109449806,0.43041757566576305,0.4101427679242169,0.020274807741546164
1031.2786629064396,0.5923509786251594,0.5663477832183113,0.026003195406848145
1031.6471002044086,0.1877912685267818,0.1478036975683427,0.03998757095843909
1037.622367621709,0.00010936981657140854,4.480173759540609e-06,0.00010488964281186794
1039.7122173240837,0.001164645847073217,0.0010434864536286365,0.0001211593934445806
1040.448714249599,0.0031352106209650687,0.003091331129092439,4.387949187262955e-05
1067.346134568305,0.0004323457469198171,1.7406683126165206e-05,0.0004149390637936519
1068.401821663932,0.0002166199479235663,6.130717192865757e-06,0.00021048923073070056
1068.7563643107658,0.0005921770836109111,0.0004807910863245083,0.00011138599728640277
1069.0215870030215,0.00015888608917064028,3.352685486644696e-05,0.0001253592343041933
1070.2646373101657,0.0002283442411099291,2.298925886756845e-06,0.00022604531522317224
1070.2911117290537,0.0006095287224937254,2.0030663706404404e-05,0.000589498058787321
1156.9585763420835,0.0061075928471141135,0.00021264644579780168,0.005894946401316312
1159.0579623834876,0.0018989954901050337,0.0006841158506763003,0.0012148796394287334
1159.7788112185974,0.0001231548419613834,1.7246340022562718e-06,0.00012143020795912711
1191.8515965581144,0.04578317368058061,0.0013835986205797343,0.044399575060000876
1194.0657051451265,0.024958217700292346,0.0009824362655929916,0.023975781434699354
1195.2731782209196,0.017903875102791664,0.0004279385456024632,0.017475936557189202
1195.468181388655,0.019857260973488507,0.0002918522747396836,0.019565408698748822
1196.2660865750067,0.03651646376928143,0.0006225288457173972,0.03589393492356403
1196.358660447278,0.030373713880208274,8.016068573118413e-05,0.03029355319447709
1320.6661707839,0.0012162391613864132,3.844344221050864e-05,0.0011777957191759045
1321.6932721734788,0.0017382288025096235,0.0005796642431125772,0.0011585645593970462
1321.8707140343968,0.001088218914073801,1.7840074418754411e-06,0.0010864349066319256
1375.7376861786386,0.0005852581433414582,0.00024860243509956754,0.00033665570824189064
1377.184388516862,0.0001152619296471233,2.548820105761387e-07,0.00011500704763654716
1378.6841456046084,3.7374972152969025e-05,1.1149729377883188e-08,3.7363822423591144e-05
1518.2958962986802,0.0009736880381646123,0.00025563974474775977,0.0007180482934168525
1519.5418586594812,0.0015723531721995071,0.0005865041899971032,0.000985848982202404
1519.9332445010673,0.0018082795315596417,7.611865729793036e-05,0.0017321608742617114
1521.0431935899992,0.00020964419833756356,7.414723056574815e-05,0.0001354969677718154
1521.6106898883165,0.0010084621053012353,1.1244794952877293e-06,0.0010073376258059475
1521.8077974314083,0.0025912997703269676,7.04097061063392e-06,0.002584258799716334
1666.6982737670278,0.07150320327312007,0.0003546304333884756,0.0711485728397316
1666.82202840408,0.07133777634805441,4.036082621568105e-05,0.07129741552183873
1667.2993466392963,0.06077146567442539,1.0904367026154416e-07,0.06077135663075513
1667.3376264713575,0.11464454494917088,9.214641448941122e-06,0.11463533030772194
1668.6551197334134,0.057786010262391094,0.0007454737304872511,0.05704053653190384
1668.6869310488878,0.047501449979085994,3.3236475067754667e-06,0.04749812633157922
3175.5399861292212,0.054869891338156083,0.03948456823435524,0.015385323103800842
3177.552366911658,0.020549467059758752,0.0005193797106472916,0.02003008734911146
3180.4593085027805,0.012064325528686573,8.928357329788505e-05,0.011975041955388687
3181.2772760296757,0.43708915571635837,0.03304463342044928,0.4040445222959091
3186.3154743678556,0.510549984689735,0.002701491961545542,0.5078484927281894
3186.923883852431,0.5036301902326094,0.0135453737363884,0.490084816496221
3188.584983154571,0.39299422367002157,0.00031829438648273226,0.39267592928353884
3188.9746637380085,0.6305577130656326,0.005498936058001549,0.625058777007631
3190.0267571337467,0.47922531472177904,5.395393577761311e-05,0.4791713607860014
3199.0352236540894,0.03903421170286936,0.00011250008645641972,0.03892171161641294
3201.296884951076,0.09480534477811949,0.07785662740306756,0.016948717375051926
3203.5015930538343,0.01913021279768174,0.018413974323110035,0.0007162384745717067
3204.9169765368,0.002467301354723192,7.129685227796435e-05,0.0023960045024452275
3205.140276579067,0.07584241933955023,0.007040023109974861,0.06880239622957537
3205.8231443230293,0.46536984482893784,0.3489403363829044,0.11642950844603348
3212.240842819025,0.6010973622134546,0.09980728612703556,0.501290076086419
3213.0923350343733,2.7634045441879036,2.563642154916067,0.19976238927183693
3213.597943868585,1.7622231536237782,1.5230142406190845,0.2392089130046937
