frequency_cm1,total_intensity,isotropic_intensity,anisotropic_intensity
1.0308147352189194,0.0,0.0,0.0
3.157695687616477e-05,0.0,0.0,0.0
4.151958652621255e-06,0.0,0.0,0.0
2.3765670159318278e-05,0.0,0.0,0.0
1.4639249727716566,0.0,0.0,0.0
2.0990640632390494,0.0,0.0,0.0
11.28278164261565,0.003122376621341306,7.409797383060625e-07,0.003121635641603
24.440485295191742,0.007181277692886068,8.345686198433918e-05,0.007097820830901729
29.36942484739302,0.0006810392312059853,3.331269861398857e-05,0.0006477265325919967
32.97430163877019,0.0010333424844886196,4.695255822161643e-06,0.0010286472286664579
35.89916578386659,0.01147414780096558,1.3654804970090752e-05,0.01146049299599549
41.66706494713896,0.009233754727347407,2.776540712838867e-05,0.009205989320219017
55.332403695536584,0.003149164316354226,0.0006092064362896905,0.0025399578800645354
56.393369591300655,0.0029810888442838956,0.00025553459121757015,0.0027255542530663255
72.21134998471283,0.013682692471774656,0.0001397864212242064,0.01354290605055045
81.48143354741984,0.014272626433396825,0.0005650954772331408,0.013707530956163685
89.09008829032433,0.017525870119027787,3.7614201684031483e-06,0.017522108698859385
98.03590329023204,0.02215786142259638,0.00036900435013008105,0.0217888570724663
220.4739093945225,0.006258148362944177,1.192105122030683e-06,0.006256956257822147
230.34284217313882,0.005813117088960155,5.794070187084183e-05,0.005755176387089313
231.5352509750718,0.00659940012214224,8.779880168298103e-05,0.006511601320459259
236.4479636532771,0.0009430128545030032,1.8437503823126088e-06,0.0009411691041206906
245.08826352508459,0.009667935684839939,0.0005356427305419133,0.009132292954298026
247.10821481030007,0.013317104445904223,0.00025183774248851277,0.01306526670341571
465.3012230711145,0.0003248440021449599,3.5236757950233975e-05,0.00028960724419472596
466.08169395101106,0.0002488031758493881,2.2548628643765737e-06,0.0002465483129850115
466.1809679655871,0.0011814126825693866,0.0001134448712496309,0.0010679678113197557
588.0232501742986,0.011052758932556084,7.290379099132443e-05,0.01097985514156476
589.6136659462252,0.006858056179527949,1.264986441813726e-05,0.0068454063151098124
592.9931295009676,0.01172153342873117,0.00020598500975937536,0.011515548418971793
627.0594226282125,0.00038150799242561245,2.706211714601454e-05,0.00035444587527959793
629.7672077802373,0.0010678430785603247,0.00011502131285338547,0.0009528217657069392
630.2356497025447,0.0010308044550618087,8.609576554611121e-05,0.0009447086895156975
717.8046904987298,0.03192644195910943,0.014002456854974709,0.01792398510413472
718.2042081911374,0.05064639858300888,0.032139323535435714,0.018507075047573165
719.5041827759471,0.05204615928081999,0.03204191233943653,0.02000424694138345
745.8645094391371,0.003478544023191356,0.0023535573289655046,0.0011249866942258512
746.6192922248503,0.0053141177695806875,0.0006177308425369127,0.0046963869270437745
750.5672689351521,0.000973996352303936,0.00022733802149128187,0.0007466583308126542
765.06317684663,0.010143557939079617,9.250897245267267e-05,0.010051048966626945
765.755721442164,0.014862785262463454,0.00013817928022506371,0.01472460598223839
766.5005963796403,0.008070415861377623,5.05984661074075e-06,0.008065356014766881
783.5661639931157,0.01681030353594281,0.00014431997935792574,0.016665983556584885
785.7071474347297,0.010653420929448936,0.00038642038916145247,0.010267000540287483
791.2494738180937,0.016169898708133616,0.0006069700359770841,0.015562928672156534
823.2636904184657,0.011277658111186547,8.474364675608843e-05,0.01119291446443046
829.1244302280144,0.008555717098841089,4.7025286816120074e-05,0.008508691812024969
836.8970037567617,0.012300395608780048,0.0007048286934534023,0.011595566915326646
891.83935293088,0.010568463884757268,0.001414164956528818,0.009154298928228449
892.2923961238279,0.02097722540620895,0.011483965087336383,0.009493260318872569
894.230506245493,0.020942646323641068,0.00378959415458985,0.01715305216905122
965.697725336792,0.05407127848064993,0.04954882664783069,0.004522451832819239
967.4149678122425,0.025012588076273882,0.01211430516601905,0.012898282910254832
969.3301610934109,0.05397928534545263,0.04278233138837049,0.011196953957082142
1031.305108655814,0.09510539862489062,0.08657943066972648,0.008525967955164138
1036.1632587126376,0.028046794880992945,0.0203128362503372,0.0077339586306557455
1037.744373233554,0.08522524531508745,0.06954774473119693,0.015677500583890516
1038.257831145337,0.0012127135225676157,0.0008448909938819154,0.0003678225286857003
1039.5662496501518,0.0013582353370225342,0.0006842524831522023,0.0006739828538703319
1040.0835870204735,0.0203813267430568,0.017281783779189576,0.003099542963867222
1043.2664603262078,0.008081800566170473,1.9507425635651044e-05,0.008062293140534823
1044.6086232421046,0.01144997209675523,0.007345446446953657,0.004104525649801573
1045.8541105767847,0.007571525621715343,0.003104255747597429,0.004467269874117915
1101.5883406042549,0.005470443727908462,8.590638639727483e-05,0.005384537341511187
1105.8495215530456,0.009672130841354877,0.0002623494356694365,0.00940978140568544
1111.3847304286778,0.005561735655603399,0.00020396888242605268,0.005357766773177346
1127.2508686047727,0.007243409963457086,0.0012994476336927814,0.005943962329764305
1130.786687079639,0.0075694823359157065,0.00029426906211002513,0.007275213273805681
1133.052371710279,0.008192050170720944,0.00120425044280388,0.006987799727917063
1195.6467185275314,0.0052700712240846695,0.00030979107683511614,0.004960280147249554
1196.7414583568611,0.010426605126550085,1.4776977726236596e-07,0.010426457356772823
1200.8364682108818,0.010382840595532858,0.00022422206922359465,0.010158618526309263
1216.2793746402813,0.008774209595161578,0.0025774882197292814,0.006196721375432296
1217.8632811751352,0.004731468886580638,0.00020782145817791744,0.00452364742840272
1221.602532573181,0.006875352684293842,0.0017702077332200903,0.005105144951073752
1229.9682341545374,0.0032997269649819483,0.00016202218088354718,0.003137704784098401
1232.5620697102208,0.0066979932714167694,3.6867558359024806e-05,0.006661125713057744
1236.8999630300334,0.005995726535645084,0.0023931327355849867,0.0036025938000600966
1254.4341220880997,0.012009751563469334,0.00018779786218533115,0.011821953701284003
1257.3234150932303,0.014783024884223603,0.0016313805169789594,0.013151644367244643
1259.5137262404296,0.019279700994795652,0.00020651342327121885,0.019073187571524434
1268.7044433301073,0.043482185631252473,0.007863213061882979,0.035618972569369495
1269.8577407530277,0.04971351396455794,0.00020347209296962693,0.04951004187158831
1276.4491440662346,0.024378944841425554,0.005965086627345137,0.018413858214080415
1396.7238748559935,0.011884586262636028,0.004791422430319996,0.0070931638323160325
1397.7864043148124,0.02121301869084393,0.0005085913714606671,0.020704427319383264
1400.6342457780224,0.04064802495322267,0.008379135562684506,0.032268889390538166
1452.0610655930138,0.038594967876113336,0.0031810762108434804,0.035413891665269856
1454.1725061584548,0.019303504085410168,1.240126749605238e-06,0.01930226395866056
1459.152293301827,0.03087338382168573,9.228547913339992e-05,0.03078109834255233
1475.5144763244587,0.03587333586817008,0.014309103026155222,0.021564232842014856
1477.1757134450477,0.05213268772258048,0.017679176188873453,0.03445351153370703
1482.022662478298,0.042516591341246295,0.02511121535135105,0.017405375989895243
1625.2884749902887,0.3057687606403577,0.25198808066968414,0.05378067997067355
1627.2706056263976,0.05114212115450973,0.03904922794843001,0.012092893206079721
1629.9983906182006,0.21631745997979812,0.2056441233228633,0.010673336656934825
1665.1804358291909,0.07595802824110393,0.0024506444327718657,0.07350738380833206
1669.5217467325538,0.04909413016275832,0.0038008641324704536,0.04529326603028787
1671.3589907291546,0.05694435413830047,1.3765458673115286e-07,0.05694421648371374
3078.898311924196,0.3363023292988952,0.16536076059806837,0.17094156870082683
3081.4202948969596,0.26205424778879505,0.12300853379873386,0.1390457139900612
3083.9175710826094,0.49064990330884733,0.383034525235595,0.10761537807325232
3085.8809811395363,1.337564340843423,1.2090006502767912,0.12856369056663178
3087.0306298197506,1.5023870740730465,1.4146640371706325,0.0877230369024141
3092.728557152306,1.5752575985828647,1.3883676551818962,0.1868899434009686
3123.6262458643328,0.266156993261628,0.0026335094189466925,0.2635234838426813
3126.813891714743,0.27042458241382505,0.0019850456702265925,0.26843953674359844
3132.1600405330237,0.29091062317861055,0.0020106410567697934,0.28889998212184076
3137.7292865095055,0.40852343235036487,0.010221028733826425,0.39830240361653846
3139.0723751784367,0.3503225353008801,0.004923013050784743,0.34539952225009535
3148.954648899646,0.2744592559655781,0.0017078763027061148,0.27275137966287194
3274.0563937789584,0.5130219620779232,0.264476102145817,0.24854585993210612
3280.3971192223826,0.3363328596294192,0.0339467884747001,0.3023860711547191
3282.813069177144,0.29846354855170387,0.06762549605470229,0.2308380524970016
3285.1467785666373,0.785381222049592,0.5672768963649689,0.2181043256846231
3287.09004579519,0.7402196058193247,0.38179429261540404,0.35842531320392057
3288.851054935481,0.8438493239683379,0.4913543488927144,0.3524949750756235
